3,3,3,3,3,3,3,3,7,9,17,0.293,-23,35,t
3,3,3,3,3,3,3,3,7,9,17,-0.449,-23.6,35.9,t
3,3,3,3,3,3,3,3,7,9,17,-1.05,-23.4,34.9,t
3,3,3,3,3,3,3,3,7,9,17,0.195,-23.9,34.5,t
7,15,37,19,5,4,11,6,7,9,17,0.0391,-25.2,34,t
6,13,36,16,5,4,11,6,7,9,17,0.0195,-24.2,34.7,t
7,12,31,19,5,5,10,5,7,8,17,1.07,-23.6,35.2,t
6,10,29,18,6,6,13,6,7,8,17,2.5,-27.7,33.6,t
6,9,24,14,6,6,14,4,7,8,17,2.62,-29.4,32.7,t
6,6,20,16,6,6,13,5,6,9,17,2.48,-30.1,31.3,t
5,6,18,15,7,7,19,6,6,9,17,-4.57,-33,30.6,t
4,6,18,14,6,7,23,7,6,9,17,-10.1,-34.2,30.1,t
7,6,20,17,6,8,27,8,6,10,0,-18,-29,29.3,t
7,6,20,19,6,8,28,7,6,11,0,-16.3,-25.7,29.9,t
6,6,21,16,6,13,30,9,6,11,0,-16.6,-24.8,29.7,t
7,6,20,18,5,12,27,9,6,11,0,-17.9,-26.2,28.4,t
7,9,23,18,6,15,27,9,6,12,1,-18.5,-24.7,27.6,t
6,9,24,17,7,17,28,9,6,12,1,-21.6,-24,26.3,t
16,10,28,21,6,18,23,13,6,12,1,-22.2,-22.4,25.8,t
19,11,32,27,5,21,25,21,6,12,1,-22.2,-22.1,25.2,t
17,13,30,23,5,20,21,25,7,13,1,-24,-20.1,24.4,t
20,17,34,22,5,21,23,27,7,13,1,-24.2,-18.3,24.1,t
19,17,49,26,6,17,23,27,7,13,1,-25.6,-15.9,24.2,t
19,18,54,24,5,17,28,30,7,13,1,-25.7,-16,24.1,t
20,14,52,28,4,17,32,31,7,13,1,-27.3,-16.2,24.4,t
22,15,55,29,3,14,32,30,7,13,1,-27.8,-16.6,25.4,t
13,17,61,27,3,12,33,28,7,13,1,-28.1,-15.3,26.3,t
10,17,63,19,4,10,32,18,7,13,1,-29.7,-14.3,28.4,t
10,15,59,18,4,10,32,14,7,13,1,-31.9,-13.6,30.9,t
6,13,53,20,4,10,30,12,7,13,1,-33.3,-13.9,30.8,t
7,13,53,14,4,8,30,12,7,13,1,-34,-14.9,29.4,t
8,15,55,21,5,7,25,8,7,13,1,-33,-18.1,26.1,t
9,15,55,17,5,5,20,14,7,13,1,-30.9,-19.4,23.8,t
8,17,58,20,6,5,22,18,7,13,0,-30.9,-20.2,22.7,t
8,17,58,23,6,4,18,15,6,13,0,-30.7,-21,22.7,t
9,22,58,28,7,5,21,19,6,13,0,-29.3,-20.2,21.8,t
8,25,61,27,6,5,25,20,6,13,0,-27.3,-21.9,21.6,t
10,27,66,28,6,6,26,22,6,13,0,-24.3,-20.8,20.8,t
9,34,54,33,7,10,30,23,6,12,17,-21.3,-24,21.1,t
9,34,60,37,7,13,30,22,6,12,17,-19.8,-26.8,20.5,t
11,36,61,38,7,12,30,18,6,12,17,-16.7,-24.1,21.2,t
13,35,55,41,7,15,29,14,6,11,17,-16.4,-29.1,21.4,t
14,36,45,37,7,21,37,21,6,11,17,-12.5,-29.5,20.1,t
16,29,48,34,6,20,32,17,6,11,17,-10.2,-33.4,19.6,t
19,27,58,34,7,20,31,18,5,10,17,-8.73,-33.3,18.9,t
19,25,66,31,8,20,34,16,5,10,17,-7.87,-34.1,18.3,t
21,21,69,26,8,15,32,15,5,10,16,-7.27,-35.6,18.7,t
22,20,56,16,6,13,32,16,5,10,16,-7.54,-37.2,17.2,t
21,19,59,16,7,15,40,16,5,10,16,-8.32,-36.8,17.7,t
20,16,63,12,6,11,38,18,5,10,16,-9.28,-36.6,17.9,t
18,13,67,12,6,6,35,12,5,10,16,-9.06,-35.3,18.8,t
16,17,61,12,5,5,34,12,5,10,16,-9.22,-36.1,18.1,t
13,19,54,13,5,6,33,13,5,10,16,-8.81,-35.5,18,t
19,20,48,15,5,6,28,17,5,10,16,-8.87,-34.6,18.3,t
17,18,51,15,5,6,30,19,5,10,16,-9,-35.4,18.3,t
17,18,52,14,6,5,28,19,5,10,16,-7.34,-32.8,17.7,t
16,18,49,13,7,4,23,18,5,10,16,-4.39,-31,17.1,t
15,19,48,12,7,4,20,16,6,10,16,-5.64,-29.3,19.3,t
14,19,44,10,7,5,15,14,6,10,17,-6.21,-30.6,18.9,t
14,13,39,9,7,5,13,14,6,10,17,-6.86,-27.7,21.5,t
15,12,32,7,7,3,11,11,6,10,17,-11.3,-27,25.1,t
7,8,23,6,6,3,9,7,6,10,17,-14.6,-26.8,27.1,t
6,7,16,7,5,4,4,4,7,10,17,-13.6,-25.3,31.3,t
4,5,16,8,4,4,4,4,7,10,17,-10.4,-26.3,31.9,t
2,4,13,7,5,4,1,3,7,9,17,-6,-25.4,35.8,t
2,4,11,7,4,4,2,3,7,9,17,-7.54,-26.3,38.2,t
2,4,10,7,4,3,2,3,7,9,0,-1.97,-24.5,38.1,t
2,6,10,8,5,3,2,2,7,8,0,-4.9,-28.9,43.1,t
1,5,12,10,5,3,1,2,7,8,0,-6.23,-19.7,45.3,t
1,5,13,10,5,3,2,2,7,8,0,-3.11,-22.7,43,t
2,5,12,10,5,2,1,2,7,8,0,-3.67,-21.3,39,t
1,6,10,9,5,2,1,2,7,8,0,-2.29,-20.6,36.6,t
1,6,14,10,3,1,1,1,7,8,17,1.56,-22.7,38.2,t
1,6,18,9,3,0,1,1,7,8,17,1.21,-22.4,35.5,t
2,6,18,9,2,0,1,1,7,8,17,2.62,-21.6,36.5,t
2,4,21,10,2,1,1,1,7,8,17,-0.586,-19.4,37.7,t
2,6,21,8,2,0,1,1,7,8,17,-0.41,-19.7,37.7,t
2,7,21,8,2,0,1,0,7,9,17,0.0391,-20.4,37.2,t
1,9,19,8,2,0,0,0,7,9,17,0.195,-21.3,36.8,t
2,10,19,8,2,0,1,1,7,9,17,-0.117,-20.7,36.8,t
2,11,23,7,2,0,1,1,7,9,17,-0.137,-20.7,37.3,t
2,10,17,9,2,1,1,1,7,9,17,-0.0195,-20.5,37.3,t
2,11,22,9,2,1,1,1,7,9,17,-0.0781,-20.1,37,t
2,10,21,7,2,0,1,1,7,9,17,-0.0781,-20.1,36.9,t
2,10,17,8,2,0,1,1,7,9,17,-0.0391,-20.4,36.9,t
2,9,17,7,2,1,1,1,7,9,17,-0.0391,-20.9,36.8,t
3,10,18,5,2,1,1,1,7,9,17,-0.117,-21,37,t
3,8,18,6,2,1,1,1,7,9,17,-0.43,-20.8,36.8,t
2,8,11,5,2,1,1,1,7,9,17,-0.0781,-20.4,36.9,t
2,10,13,3,3,1,1,1,7,9,17,-0.195,-20.5,36.9,t
2,8,7,4,2,1,1,1,7,9,17,-0.371,-20.5,36.9,t
3,8,12,5,2,1,1,1,7,9,17,-0.469,-20.9,37,t
3,7,14,4,2,1,1,1,7,9,17,-0.293,-20.9,37,t
3,7,15,5,2,1,1,1,7,9,17,-0.43,-20.1,37,t
2,4,18,6,1,1,1,1,7,9,17,-0.469,-20.9,36.9,t
3,4,18,6,1,1,1,1,7,9,17,-0.84,-20.6,37,t
3,4,20,6,1,1,1,1,7,9,17,-0.859,-20.2,36.9,t
2,2,19,7,1,1,1,0,7,9,17,-0.879,-21,36.9,t
3,3,19,7,1,1,1,1,7,9,17,-0.938,-20.8,37,t
1,5,15,6,1,1,1,1,7,9,17,-1.23,-21.3,36.9,t
0,0,0,0,0,0,0,0,0,0,0,0,0,0,SPACE
3,3,3,3,3,3,3,3,7,9,17,-1.84,-21.6,34.6,t
3,3,3,3,3,3,3,3,7,9,17,-1.93,-20.5,36.2,t
3,3,3,3,3,3,3,3,7,9,17,-0.43,-22,35.8,t
3,3,3,3,3,3,3,3,7,9,17,-0.703,-20.9,36.5,t
5,9,17,13,2,1,2,3,7,9,17,-1.19,-23.9,35.3,t
4,8,17,14,2,1,1,3,7,9,17,-0.488,-23.6,35.2,t
5,10,20,19,2,2,2,7,7,9,17,-0.527,-21.4,36.5,t
5,10,20,20,3,2,3,8,7,9,17,0.137,-21,36,t
5,9,20,24,3,2,4,13,7,9,17,-1.35,-21.1,35.8,t
5,10,23,23,3,3,5,14,7,9,17,-2.34,-23.2,36.1,t
9,11,26,23,3,4,7,19,7,9,17,-2.62,-26.3,34.5,t
15,15,28,29,6,4,8,20,7,9,17,-1.17,-26.9,33.2,t
15,16,30,31,7,7,8,23,6,9,17,-3.28,-30.3,30.3,t
16,16,31,36,7,7,8,27,6,9,17,-1.88,-28.7,29.1,t
14,17,37,31,8,7,12,34,6,9,17,-2.44,-29,29,t
16,19,41,36,9,8,12,37,6,9,17,-2.5,-28.2,29.7,t
18,23,43,39,9,9,15,35,6,9,17,-2.15,-33.3,27.8,t
18,27,50,40,11,9,16,36,6,9,17,-4.02,-32.8,26.3,t
16,28,55,49,10,10,18,33,6,9,17,-4.55,-35.8,26.7,t
13,20,54,44,7,11,30,36,6,9,17,-7.44,-36.9,25.4,t
13,20,52,52,8,9,37,36,6,10,0,-16.3,-38.1,27.3,t
12,24,55,45,9,11,41,36,6,11,0,-16.8,-35.3,27.1,t
15,24,51,47,8,10,37,26,6,12,0,-18.9,-30.3,24.7,t
13,20,47,39,7,9,38,25,6,12,1,-20.1,-25.1,24.8,t
12,20,42,42,10,10,41,22,6,12,1,-21.7,-23.4,24,t
13,18,29,43,8,11,40,21,6,13,1,-22.6,-21,23.5,t
13,17,21,34,8,13,44,20,7,13,1,-22.9,-18.5,22.9,t
12,17,31,35,8,13,33,18,7,13,2,-22.3,-15.5,22.8,t
12,19,31,27,8,12,30,14,7,13,2,-26.1,-12.3,22.5,t
13,15,36,35,7,12,31,10,7,13,2,-27,-13.2,23.6,t
12,11,41,36,8,13,34,12,7,13,2,-29.5,-10.8,25.1,t
14,12,51,47,9,14,34,8,7,14,2,-29.5,-7.68,26.7,t
14,12,55,40,6,11,27,9,7,14,2,-32.6,-8.89,29.7,t
13,11,55,37,7,10,26,9,7,14,2,-34,-7.91,31.4,t
11,12,57,36,6,7,22,10,7,14,2,-40.1,-7.29,28.8,t
9,17,52,35,6,4,21,9,7,14,2,-39.8,-10.9,25.4,t
10,18,58,33,6,4,20,12,7,14,1,-36.5,-12.6,23.5,t
9,17,53,28,6,3,16,16,7,13,1,-28.8,-16.6,20.3,t
9,22,48,28,5,2,13,16,6,13,0,-27.2,-18.9,20.6,t
9,23,52,20,6,8,17,18,6,13,0,-23.4,-25.6,21.8,t
13,20,53,19,8,8,19,25,6,12,0,-18,-28.4,20.6,t
12,20,54,18,8,12,23,29,6,12,0,-17.7,-29.8,20.9,t
14,19,60,20,9,14,21,29,6,11,17,-6,-29.8,19.4,t
15,17,63,20,9,14,21,29,5,10,17,-3.18,-29.8,19,t
14,18,59,21,9,14,25,28,5,10,17,-2.99,-32.6,17.8,t
15,19,57,18,9,15,23,27,5,10,17,-2.44,-32.3,16.5,t
12,17,52,14,10,15,24,32,5,10,17,-5.68,-38.6,18.2,t
11,16,39,12,8,10,20,29,5,10,17,-6.54,-36.8,18.9,t
7,18,36,12,7,10,18,22,5,10,17,-7.68,-38.8,19.5,t
7,19,36,12,7,6,17,18,5,10,17,-8.24,-36.4,18.9,t
4,23,36,11,8,6,16,18,5,10,17,-8.46,-36.5,18.7,t
4,24,34,11,8,6,15,20,5,10,17,-9.77,-36.3,18.6,t
7,22,44,10,9,6,10,18,5,10,17,-9.67,-36,18.6,t
7,22,48,11,9,7,10,17,5,10,17,-10,-35.6,18.4,t
8,20,47,11,8,6,10,10,5,10,17,-10.4,-35.2,18.4,t
8,22,45,11,9,6,11,11,5,10,17,-8.98,-33.5,18.4,t
7,21,46,12,9,6,11,10,5,10,17,-6.82,-31.4,17.7,t
7,21,49,12,9,6,8,9,5,10,17,-5.98,-28.8,17.7,t
7,14,41,12,7,5,8,7,5,10,17,-7.73,-29,18.8,t
7,12,35,11,7,6,9,6,6,10,17,-8.05,-31.4,18.7,t
5,10,28,9,5,7,7,5,6,10,17,-8.93,-32.3,20.8,t
6,9,27,9,5,6,7,3,6,10,17,-8.18,-33.1,20.8,t
5,8,26,8,7,6,7,3,6,10,17,-7.85,-34.2,21.4,t
5,6,29,8,11,6,6,3,6,10,17,-8.75,-35.3,23,t
6,4,25,6,13,7,5,2,6,10,17,-13,-34.8,26.9,t
6,3,21,7,13,6,6,2,6,10,17,-9.34,-34.4,26.8,t
5,4,19,6,14,7,5,2,6,10,0,-11.1,-30.8,29.3,t
5,6,17,5,13,5,4,2,6,9,0,-9.86,-28.7,30.9,t
5,5,12,6,15,5,5,2,7,9,0,-11.5,-28.1,33.9,t
3,5,7,5,15,5,4,2,7,9,0,-8.75,-23.2,34.2,t
3,6,8,5,12,5,3,2,7,9,0,-7.93,-23.7,36.1,t
3,7,7,5,8,4,3,2,7,9,0,-7.97,-25.2,37.9,t
2,7,10,5,6,4,3,2,7,9,0,-1.62,-24.4,40.5,t
2,6,10,4,4,4,2,2,7,9,17,-1.13,-22.1,40.1,t
2,6,10,5,3,3,2,1,7,9,17,-0.254,-21.4,37,t
1,4,10,5,4,2,2,1,7,9,17,1.91,-21.8,35.7,t
1,4,9,5,3,2,1,1,7,9,17,2.99,-21.7,36.3,t
1,5,11,7,3,2,1,1,7,9,17,0.625,-22.5,36.3,t
1,4,10,7,3,2,1,1,7,9,17,-1.09,-19.6,37.4,t
1,4,10,6,3,2,1,1,7,9,17,-1.19,-20.2,37.8,t
1,6,7,8,3,2,1,1,7,9,17,-0.566,-20.5,37.5,t
1,6,8,9,3,1,1,1,7,9,17,-0.293,-19.2,37.2,t
1,7,13,10,3,1,1,1,7,9,17,-0.0195,-20.3,37.3,t
1,8,15,10,3,1,1,1,7,9,17,-0.293,-20.1,37.2,t
1,9,15,10,2,1,1,1,7,9,17,-0.449,-20.2,37.3,t
1,9,13,9,2,1,1,1,7,9,17,-0.488,-19.6,37.4,t
1,9,13,9,1,1,1,1,7,9,17,-0.762,-19.8,37.6,t
1,11,12,10,1,1,1,1,7,9,17,-0.762,-19.8,37.3,t
2,13,12,9,1,1,1,1,7,9,17,-0.234,-19.6,37.1,t
2,13,11,7,1,1,1,1,7,9,17,-0.313,-19.9,37.4,t
2,14,7,5,0,1,1,1,7,9,17,-0.684,-19.8,37.3,t
2,14,7,6,0,1,1,1,7,9,17,-0.82,-19.7,37.3,t
2,14,8,7,0,1,0,1,7,9,17,-0.41,-20,37.3,t
2,13,8,10,1,1,1,1,7,9,17,-0.742,-20.1,37.6,t
2,14,10,12,1,1,1,1,7,9,17,-0.703,-19.7,37.3,t
2,13,11,11,2,1,1,1,7,9,17,-0.605,-20.2,37.3,t
1,11,11,13,2,1,1,1,7,9,17,-0.625,-19.8,37.4,t
1,11,12,13,2,1,1,1,7,9,17,-0.684,-20.4,37.4,t
1,10,13,13,2,1,1,1,7,9,17,-0.801,-19.9,37.3,t
1,9,13,12,2,1,1,1,7,9,17,-0.605,-20,37.3,t
0,0,0,0,0,0,0,0,0,0,0,0,0,0,SPACE
3,3,3,3,3,3,3,3,7,9,0,-1.33,-22.2,35.7,t
3,3,3,3,3,3,3,3,7,9,0,-1.58,-21.6,35.8,t
3,3,3,3,3,3,3,3,7,9,0,-0.0781,-22.9,36,t
3,3,3,3,3,3,3,3,7,9,0,-0.781,-23.2,35,t
3,3,21,11,3,2,5,2,7,9,0,0.0586,-22.5,35.3,t
5,3,32,11,3,5,9,4,7,9,0,-0.254,-25.8,35.4,t
6,4,32,11,3,4,10,7,7,9,0,1.33,-28.6,35.1,t
7,4,29,10,3,5,14,7,6,9,0,-2.93,-29.2,30.4,t
6,4,29,11,3,8,21,7,6,9,0,-9.36,-35.6,27.2,t
6,5,33,14,4,8,27,8,6,9,0,-8.22,-33.9,30.1,t
9,7,38,16,5,8,27,9,6,9,0,-9.51,-26.3,30.9,t
10,7,39,17,5,9,34,10,6,10,0,-10.1,-32.2,31.7,t
12,9,39,18,8,11,35,11,6,10,0,-12.8,-27.8,30.9,t
10,10,29,16,8,8,36,9,6,11,0,-14.6,-28.8,29.1,t
9,9,29,18,9,8,34,8,6,11,1,-17.8,-28.9,26.9,t
9,8,30,20,9,9,30,8,6,11,1,-19.3,-26.7,25.1,t
11,11,32,19,8,7,21,7,6,12,1,-22.5,-24.1,25.2,t
13,10,44,18,7,7,17,13,6,12,1,-24,-22.7,24.7,t
12,9,35,15,6,9,18,15,6,13,2,-25,-21,24.2,t
12,9,43,15,6,12,13,17,7,13,2,-26.5,-19.6,23.5,t
11,11,53,19,5,13,14,21,7,13,2,-25.7,-17.9,24,t
11,10,55,21,6,12,13,21,7,13,2,-27,-17.6,23.8,t
11,12,56,20,6,13,18,23,7,13,2,-27.6,-14.3,25.2,t
11,12,55,22,6,13,17,23,7,13,2,-27.9,-15,25.7,t
11,10,58,21,6,12,17,24,7,13,2,-26.8,-10.8,25.9,t
8,13,57,25,6,13,17,18,7,13,2,-27.6,-13.3,26.7,t
9,14,52,26,6,11,18,17,7,13,2,-27.9,-13.5,27.7,t
10,16,44,27,6,7,18,14,7,13,2,-29.6,-11.9,29.4,t
10,14,34,25,4,7,17,9,7,13,2,-36.9,-11.5,31.8,t
10,17,32,25,4,8,15,13,7,13,2,-36,-13.8,30.9,t
11,17,29,26,3,9,11,11,7,13,2,-37.1,-14.3,29.7,t
11,19,30,22,2,8,14,11,7,13,2,-34.6,-16.4,27,t
10,21,34,31,4,10,19,11,7,13,1,-30.6,-18.2,24,t
10,23,20,25,5,11,18,10,7,13,1,-28.2,-18.8,21.8,t
9,22,29,23,4,11,18,9,7,13,1,-25.7,-19.6,21.3,t
8,24,36,24,5,12,17,8,6,13,1,-24.3,-21.1,23.2,t
9,25,36,24,5,14,28,11,6,12,0,-22.7,-24.7,22.5,t
10,30,42,23,6,13,28,8,6,12,0,-19.8,-24.5,21.7,t
12,31,56,28,10,15,29,9,6,11,0,-13.1,-27,19.9,t
11,35,58,29,10,16,31,9,6,11,0,-9.53,-27.6,17.9,t
10,35,58,26,9,14,27,8,6,11,17,-8.91,-30.9,17.7,t
11,29,58,24,11,13,28,11,6,10,17,-8.91,-32.2,17.5,t
11,31,49,27,12,12,29,11,5,10,17,-8.98,-32.8,18,t
11,26,41,26,12,11,30,13,5,10,17,-9.82,-35.8,18.4,t
12,24,42,25,12,6,19,11,5,10,17,-10.2,-36.6,19.1,t
12,16,40,25,12,7,19,11,5,10,17,-10.7,-37.1,19.2,t
9,15,26,19,8,6,20,12,5,10,17,-10.1,-36.9,18.8,t
9,14,28,17,8,5,17,12,5,10,17,-10.6,-36.9,18.8,t
9,11,25,12,8,5,18,15,5,10,17,-10.7,-36.9,18.8,t
9,14,27,12,7,6,19,11,5,10,17,-10.8,-36.2,18.7,t
11,11,30,9,7,8,17,13,5,10,17,-10.5,-35.8,18.4,t
9,13,35,9,7,9,15,12,5,10,17,-10.7,-35.8,18.9,t
10,14,33,9,6,9,14,11,5,10,17,-10.5,-34.6,18.6,t
10,19,34,9,6,9,13,10,5,10,17,-10.8,-34.7,18.5,t
10,17,33,8,7,7,11,9,5,10,17,-10.6,-34.7,18.7,t
12,13,31,7,8,7,11,8,5,10,17,-10.4,-33.7,18.3,t
12,14,25,6,6,7,9,6,5,10,17,-9.22,-32.5,19.5,t
12,11,24,7,5,6,7,6,6,10,17,-11.2,-31.3,19.9,t
11,11,24,7,4,3,7,5,6,10,17,-10.8,-29.3,20.7,t
11,10,20,6,5,2,6,5,6,11,17,-12,-31.1,23.3,t
9,9,20,5,5,3,6,4,6,11,0,-10.9,-25.1,23.3,t
6,4,16,4,4,3,6,4,6,10,0,-13.1,-27.3,27,t
6,3,15,4,3,3,6,4,6,10,0,-9.96,-22.4,28.1,t
5,3,11,5,2,3,3,3,7,10,0,-11,-24.4,30.1,t
4,2,12,5,4,4,3,3,7,10,0,-9.14,-23.1,30.3,t
3,2,10,4,5,4,3,2,7,10,0,-8.07,-23.5,31.9,t
2,4,6,5,5,4,3,1,7,10,0,-5.84,-23.8,33.8,t
2,6,6,6,5,5,3,1,7,9,0,-3.96,-24.3,34.8,t
2,10,9,6,6,5,2,1,7,9,0,-5.31,-27.4,36.9,t
2,11,8,7,5,4,1,1,7,9,0,-3.59,-24.4,37.2,t
2,12,9,7,5,3,1,1,7,9,0,-5.61,-23.1,39.4,t
2,11,9,6,5,3,1,1,7,8,0,-2.42,-24.4,39.9,t
2,11,9,6,5,3,1,2,7,8,0,-3.59,-26.8,34,t
2,13,10,7,4,3,1,1,7,8,0,-15.8,-16.1,31.9,t
2,11,12,6,4,4,1,2,7,8,0,-1.95,-22.1,38.9,t
2,8,14,7,3,3,1,2,7,8,0,-3.38,-22.2,38.1,t
2,6,14,6,3,2,2,2,7,8,0,-4.08,-24.2,39.4,t
3,5,14,6,3,2,2,2,7,8,0,-1.04,-23.7,38.8,t
2,5,14,7,3,3,2,2,7,8,0,-2.56,-22,36.9,t
3,9,14,9,2,3,2,1,7,9,0,1.58,-20.5,38,t
2,10,14,9,2,1,2,1,7,9,0,2.34,-19.9,37.7,t
3,9,16,7,2,1,1,1,7,9,0,1.54,-18.8,37.9,t
2,10,17,8,1,1,1,1,7,9,0,-0.371,-19,37.9,t
2,13,17,7,1,1,1,1,7,9,0,-0.41,-20.5,37.2,t
2,13,14,8,1,1,1,1,7,9,0,-0.0586,-20,36.9,t
1,13,14,10,1,1,1,1,7,9,0,0.313,-20,37.1,t
2,15,15,10,1,1,1,1,7,9,0,-0.254,-19.8,37.6,t
2,11,16,8,1,1,1,1,7,9,0,-0.645,-20,37.6,t
2,11,16,8,1,1,0,1,7,9,0,-0.84,-20,37.3,t
2,10,13,8,1,1,0,1,7,9,0,-0.625,-19.9,37.4,t
2,9,10,7,1,0,0,1,7,9,0,-0.684,-20.2,37.3,t
2,7,7,7,1,0,0,1,7,9,0,-0.488,-20.3,37.2,t
2,6,8,5,1,0,1,1,7,9,0,-0.938,-20,36.9,t
2,6,7,3,1,0,1,1,7,9,0,-0.879,-20.6,36.7,t
1,6,6,3,1,0,0,1,7,9,0,-0.723,-20.3,37.4,t
2,7,8,3,1,0,1,1,7,9,0,-0.918,-20.3,37.3,t
2,6,13,3,1,0,1,1,7,9,0,-0.762,-20.3,37.2,t
1,6,18,3,1,0,1,1,7,9,0,-0.938,-20.4,37.1,t
1,7,24,5,1,0,1,1,7,9,0,-0.723,-20.5,37.2,t
1,7,24,5,1,0,1,1,7,9,0,-0.977,-19.9,36.9,t
0,0,0,0,0,0,0,0,0,0,0,0,0,0,SPACE
3,3,3,3,3,3,3,3,7,9,0,-0.469,-20.6,36.8,t
3,3,3,3,3,3,3,3,7,9,0,-0.84,-21.7,36.5,t
3,3,3,3,3,3,3,3,7,9,0,-0.625,-20.9,36.6,t
3,3,3,3,3,3,3,3,7,9,0,0.0586,-21.6,36.4,t
4,6,12,13,2,1,2,7,7,9,0,-0.566,-22.9,35.9,t
4,5,13,16,2,1,2,13,7,9,0,-0.176,-21.7,36.5,t
4,5,17,15,2,2,2,12,7,9,0,-0.645,-20.7,36.9,t
4,6,16,15,2,1,2,11,7,9,0,-1.31,-22.1,36,t
4,7,18,12,3,2,1,9,7,9,0,-1.52,-19.7,36.4,t
4,7,22,11,3,1,2,8,7,9,0,-1.09,-20.4,37.6,t
5,9,21,17,5,2,5,8,7,9,0,-0.234,-25.4,36.3,t
6,10,23,20,5,5,17,13,7,9,0,-0.605,-31.3,33.1,t
10,10,27,20,6,5,17,16,6,9,0,-4.39,-29,31.3,t
10,10,27,17,7,6,18,14,6,9,0,-11.9,-35.4,29.8,t
11,11,25,17,7,6,22,14,6,10,0,-8.32,-35.1,30.5,t
11,12,28,28,8,7,22,15,6,10,1,-13.1,-28.8,30.9,t
13,11,31,32,8,6,23,16,6,10,1,-14.6,-31.3,29.3,t
13,11,29,34,8,6,26,19,6,11,1,-18.7,-27.8,26.4,t
14,10,35,37,6,7,31,20,6,12,1,-21.6,-27.3,24.4,t
14,10,42,33,7,8,20,23,6,12,1,-21.5,-25.1,24.1,t
10,11,44,32,7,8,23,20,6,12,2,-22.8,-22.6,23.7,t
10,11,49,34,7,8,23,19,6,13,2,-22.7,-20.1,24.1,t
10,12,52,36,6,9,21,19,7,13,2,-21.9,-18.9,23.9,t
10,10,50,24,7,9,24,17,7,13,2,-24.5,-18.3,24.1,t
8,11,49,22,8,10,25,17,7,13,2,-24.4,-16.2,24.5,t
8,10,55,20,9,12,26,16,7,13,3,-25.6,-16.3,25.5,t
9,9,48,11,8,13,24,18,7,13,3,-27.2,-16.4,25.8,t
7,9,43,11,7,11,27,15,7,13,3,-28.9,-16.2,26.1,t
7,8,39,14,7,11,25,19,7,13,3,-27.6,-15.5,26.2,t
11,12,37,13,7,12,26,17,7,13,3,-27.1,-13.2,26.3,t
12,9,43,9,8,12,25,19,7,13,3,-27.8,-13,26.6,t
15,9,44,9,7,12,21,19,7,13,3,-29.8,-14.9,28.1,t
15,8,44,8,5,11,19,21,7,13,3,-31.5,-13.1,30.4,t
17,8,43,10,4,11,18,22,7,13,3,-35.9,-13.4,32.2,t
15,8,44,10,4,11,11,19,7,13,2,-37.3,-12.1,31,t
15,11,46,13,6,10,9,16,7,13,2,-36.3,-15,28.3,t
15,13,44,11,5,12,10,12,7,13,2,-34.1,-18.1,26.3,t
11,13,42,11,5,11,9,11,7,13,2,-31.7,-17.6,24.5,t
10,14,31,10,5,11,11,11,7,13,1,-27.6,-20.8,22.1,t
7,15,38,12,5,11,13,11,7,13,1,-22.8,-21.4,21.1,t
10,17,34,11,6,12,15,12,6,13,1,-22.2,-21.6,21.6,t
10,23,38,17,7,11,12,13,6,12,1,-19.3,-21.6,20.8,t
8,23,43,18,7,12,12,17,6,12,0,-19.4,-24.5,21.6,t
11,34,40,15,6,12,25,23,6,12,0,-16.6,-24.4,21.5,t
14,35,54,15,6,9,23,24,6,11,0,-15.8,-26.8,21.7,t
17,38,57,18,6,11,23,26,6,11,0,-13.5,-27.2,21.7,t
18,37,57,20,6,10,21,25,6,10,0,-10,-30,21.6,t
18,36,52,22,6,10,19,25,6,10,0,-6.91,-30.3,21.3,t
15,34,55,23,4,10,19,21,6,10,0,-5.23,-30.6,20.3,t
17,28,46,15,3,10,27,21,6,10,0,-4.63,-32.6,20.1,t
18,29,41,15,3,7,27,20,6,10,17,-6.35,-37.9,20.6,t
18,15,46,17,3,7,15,14,6,9,17,-7.32,-37.7,21.1,t
16,13,34,18,2,6,15,19,5,10,17,-8.26,-38.1,21.1,t
13,9,29,15,2,4,16,18,5,10,17,-7.71,-36.8,20.4,t
14,10,31,15,2,3,17,21,5,10,17,-7.64,-34.8,19.7,t
16,11,27,12,2,5,19,20,5,10,17,-8.01,-34.5,19.7,t
15,11,33,11,3,6,18,24,5,10,17,-7.81,-34.3,20.2,t
13,13,39,12,3,5,14,23,6,10,17,-8.26,-34.3,20.5,t
12,12,41,11,3,6,17,19,6,10,17,-7.64,-33,20.3,t
10,13,33,9,3,7,24,21,6,10,17,-8.32,-34.5,20.5,t
9,14,37,8,5,7,24,16,6,10,0,-9.43,-35.3,20.4,t
9,16,37,11,5,7,28,15,6,10,0,-9.45,-34.6,20.7,t
7,15,45,13,6,8,30,15,6,10,0,-10.6,-34,21.2,t
7,14,46,13,6,7,29,16,6,10,0,-10.8,-33.6,21.7,t
7,12,42,13,6,6,31,14,6,10,0,-11.7,-34,21.5,t
8,10,39,15,8,6,28,13,6,10,0,-11.9,-33.4,20.9,t
7,9,36,15,7,5,23,14,6,11,0,-12.7,-31.2,21.1,t
7,8,37,16,7,4,17,11,6,11,0,-12.1,-26.8,21.6,t
7,6,31,14,5,5,15,10,6,11,0,-13.6,-26.8,21.1,t
7,2,32,11,5,5,10,10,6,11,0,-14,-25,22.7,t
7,2,21,7,4,5,6,7,6,11,0,-14.7,-21.1,23.5,t
5,1,19,7,4,6,5,7,6,11,0,-15.5,-24.9,26.7,t
4,1,17,7,4,6,3,4,7,11,0,-14.2,-24.5,28.3,t
2,1,12,5,3,6,3,3,7,11,1,-13.4,-20.7,30.5,t
2,1,13,5,4,6,3,2,7,10,1,-13.2,-22.7,32.7,t
2,1,11,4,4,6,3,2,7,10,1,-10.5,-22.6,34.6,t
1,0,12,4,4,6,2,2,7,9,1,-7.52,-24.2,37.2,t
1,1,12,5,6,6,3,2,7,9,1,-6.52,-23.8,39.8,t
1,1,16,6,6,6,3,2,7,9,1,-3.83,-23.6,39.6,t
1,1,17,6,7,4,2,2,7,9,1,-3.91,-18.9,40.3,t
1,4,16,9,7,3,2,2,7,8,1,-1.45,-20.9,40.1,t
1,5,16,8,7,2,2,2,7,8,1,-2.64,-22.8,41.5,t
1,5,14,8,7,3,3,2,7,8,1,-2.36,-21.6,39.6,t
2,6,15,9,7,3,2,2,7,8,1,-3.65,-21.6,38.7,t
2,6,13,10,6,2,3,2,7,8,1,-2.21,-26.9,40.2,t
1,6,12,10,3,1,2,2,7,8,1,-4.06,-23.2,34.6,t
2,6,7,8,3,1,3,2,7,8,1,1.45,-24.2,35.2,t
1,7,6,8,3,1,2,2,7,8,1,2.52,-23.2,36.8,t
1,5,7,6,2,1,2,2,7,8,1,2.87,-21.5,37.5,t
1,4,10,5,2,1,2,2,7,9,1,1.25,-19.7,38.2,t
1,4,12,6,2,1,2,1,7,9,0,-1.19,-21.1,37.7,t
1,3,12,5,2,1,2,1,7,9,0,-1.46,-21.8,37,t
1,3,13,6,3,1,1,1,7,9,0,-1.05,-22.2,36.3,t
1,3,15,6,3,1,1,1,7,9,0,-0.313,-21.8,35.9,t
1,2,17,7,3,1,1,1,7,9,0,-0.0781,-21.9,36.1,t
1,2,17,8,3,1,1,1,7,9,0,-0.254,-21.2,36.4,t
1,2,18,7,2,1,0,0,7,9,0,-0.801,-21.5,36.6,t
1,2,15,7,2,1,0,1,7,9,0,-1.02,-21.9,36.5,t
1,3,14,6,2,1,1,1,7,9,0,-0.82,-21.5,36.8,t
1,4,14,8,2,1,1,1,7,9,0,-0.781,-21.8,36.5,t
0,0,0,0,0,0,0,0,0,0,0,0,0,0,SPACE
3,3,3,3,3,3,3,3,7,9,0,-0.234,-23.1,35.1,t
3,3,3,3,3,3,3,3,7,9,0,0.0391,-22.6,34.9,t
3,3,3,3,3,3,3,3,7,9,0,-0.547,-23.3,34.6,t
3,3,3,3,3,3,3,3,7,9,0,-0.742,-24.1,35.4,t
6,12,27,30,6,4,4,7,7,9,0,-0.547,-23.5,35.5,t
8,10,26,27,5,4,4,6,7,9,0,-0.43,-23.5,34.9,t
8,9,25,26,5,4,4,5,7,9,0,-0.762,-23.5,35,t
8,9,22,23,4,4,4,7,7,9,0,0.0195,-24.6,34.7,t
7,7,25,22,3,3,4,8,7,9,0,0.234,-25.2,33.6,t
6,8,23,20,2,3,6,8,7,9,0,-0.313,-25.6,34.1,t
6,8,31,15,1,3,7,8,7,9,0,-0.117,-24.4,34.4,t
6,8,41,12,2,3,8,5,7,9,0,1.29,-24.8,34.5,t
6,8,47,21,2,3,8,14,7,9,0,0.645,-25.7,33.7,t
5,9,55,22,2,2,8,20,7,9,0,-0.0195,-25.2,33.4,t
7,13,58,29,4,3,13,26,6,9,0,0.195,-26.8,32.6,t
9,12,66,35,4,3,17,28,6,9,0,-0.254,-29.9,30.9,t
14,11,62,42,5,4,22,29,6,9,0,-0.664,-28.2,31.2,t
22,8,53,44,5,8,30,33,6,9,0,-2.91,-30.1,27.9,t
25,8,61,45,6,8,37,36,6,9,0,-2.7,-36.5,28.5,t
25,9,51,50,7,8,42,37,6,9,1,-8.48,-35.6,26.6,t
28,10,52,41,8,9,43,30,6,10,1,-14.7,-34.4,26.1,t
27,11,47,41,8,10,43,25,6,10,1,-15.8,-34.3,25.8,t
27,9,44,34,7,10,44,20,6,11,1,-19.2,-32,23.5,t
25,8,48,31,7,12,39,18,6,11,1,-21.2,-28.7,24.2,t
20,8,54,25,5,12,36,17,6,12,2,-21.9,-27.9,24.4,t
12,9,63,32,5,9,26,14,6,12,2,-21.7,-24.6,24.5,t
11,10,59,29,6,8,21,14,6,13,2,-21.2,-21.9,24.2,t
13,9,67,25,4,11,16,20,6,13,2,-21.1,-22,24.1,t
10,10,58,26,4,11,21,23,7,13,3,-24.3,-17.6,23.8,t
12,10,68,24,3,10,22,23,7,13,3,-25.4,-15.2,23.2,t
13,10,69,22,3,10,19,26,7,13,3,-25,-12.4,24.1,t
12,10,65,20,3,9,20,25,7,13,3,-29.2,-16.6,24.7,t
13,9,61,16,4,9,18,25,7,13,3,-29,-16.8,25.4,t
13,13,61,9,5,8,17,24,7,13,3,-29,-14.2,26.9,t
14,13,51,13,4,9,19,21,7,13,3,-30.5,-13.3,28.3,t
12,20,51,18,5,6,22,14,7,13,3,-32.7,-12.6,30,t
12,18,51,19,5,4,20,11,7,13,3,-35.8,-12.2,29.9,t
11,17,40,21,5,5,19,12,7,13,3,-36.3,-14.2,27.7,t
7,19,39,25,6,4,22,12,7,13,2,-35.7,-15.3,25.3,t
7,19,33,27,7,6,24,11,7,13,2,-34.3,-15.2,23.4,t
8,21,31,33,8,9,26,14,7,13,2,-31.7,-17.1,22.5,t
8,17,27,30,8,10,33,14,7,13,2,-29.6,-18.8,20.7,t
8,15,27,31,8,10,30,15,6,13,1,-27.8,-20.2,20.6,t
11,15,31,30,8,13,32,19,6,13,1,-24.6,-22,19.8,t
11,15,40,28,8,13,29,19,6,13,1,-24.1,-21.4,19.9,t
10,16,49,27,8,14,35,18,6,12,1,-22.8,-25.1,20.5,t
11,15,50,26,8,16,33,15,6,12,1,-20.4,-26.2,19.2,t
11,21,56,25,6,14,30,18,6,12,0,-17,-26.3,20.2,t
14,25,65,25,7,14,41,23,6,11,0,-12.1,-28.1,19.2,t
16,25,60,33,6,14,38,25,6,11,0,-8.87,-31.1,19.3,t
14,26,65,28,6,13,52,27,5,10,0,-7.27,-34.7,19,t
14,24,54,25,5,12,44,25,5,10,0,-6.78,-34.8,17.7,t
17,28,46,26,5,13,47,26,5,10,0,-7.29,-35.9,18.7,t
22,31,48,25,6,11,40,28,5,10,0,-7.89,-37.7,18.2,t
22,29,48,23,7,13,37,35,5,10,0,-8.44,-38.5,19.1,t
24,25,44,23,8,14,39,34,5,10,0,-9.32,-39,18.2,t
21,23,34,19,8,12,26,33,5,10,0,-9.02,-38.3,18.7,t
22,22,40,16,8,10,25,31,5,10,0,-8.89,-38,18.2,t
23,21,36,20,8,10,21,36,5,10,0,-8.75,-36.3,17.5,t
24,17,41,22,8,11,31,47,5,10,0,-9.45,-37.2,17.2,t
28,15,41,21,9,10,33,43,5,10,0,-9.3,-36.2,17.6,t
25,12,30,23,8,11,40,40,5,10,0,-8.71,-35.5,17.1,t
24,13,34,21,7,9,42,33,5,10,0,-9.79,-35.2,17.7,t
23,13,32,20,7,9,43,35,5,10,0,-10.3,-35.1,17.9,t
24,10,35,19,5,10,45,29,5,10,0,-11.1,-34.3,17.6,t
22,11,33,13,5,10,46,34,5,10,0,-10.9,-32.4,18.2,t
21,13,31,11,6,10,38,27,5,10,0,-10.5,-32.2,17.4,t
16,13,25,10,5,9,30,15,5,11,0,-11.5,-30.6,19.3,t
10,11,25,11,4,9,23,15,6,11,0,-11.7,-32.8,18.5,t
10,10,26,10,5,7,16,14,6,11,0,-12.2,-31.7,20.5,t
11,10,24,12,6,6,14,15,6,11,0,-14.8,-27.4,20.6,t
9,7,24,11,6,4,13,13,6,11,0,-14.4,-29,23.2,t
8,7,21,13,7,4,10,11,6,11,0,-13.2,-25.1,26.4,t
6,5,16,13,6,4,7,6,6,10,1,-11.2,-31.3,26.5,t
5,3,16,11,7,3,5,5,6,10,1,-13.4,-26,29.3,t
5,3,15,9,7,3,5,4,6,10,1,-11.2,-27.5,29.8,t
4,2,14,8,7,3,5,4,6,9,1,-8.03,-28.3,32.1,t
3,2,10,7,6,2,5,4,7,9,1,-9.12,-27.1,34.7,t
2,2,6,5,5,3,4,2,7,9,1,-5.88,-27.4,34.9,t
2,3,4,6,5,3,3,1,7,9,1,-6.23,-26.8,37.3,t
1,3,5,5,5,2,3,1,7,8,1,-2.97,-28.6,37.7,t
1,5,7,6,6,2,3,1,7,8,1,-4.82,-33.4,39.9,t
1,7,7,6,4,2,3,1,7,8,1,-3.09,-24.6,41.1,t
1,6,7,6,4,2,2,1,7,8,1,0.449,-27.1,38,t
1,6,9,5,4,1,2,0,7,8,1,0.566,-23.7,36,t
1,7,8,5,4,1,2,0,7,8,1,1.46,-22.4,33.3,t
2,10,7,7,4,1,2,0,7,8,1,2.11,-22.9,34.8,t
1,10,9,8,5,1,2,0,7,8,1,4.41,-21.7,39,t
2,10,9,8,3,1,1,0,7,8,1,2.95,-22.1,36.5,t
2,9,7,6,2,0,1,0,7,8,1,2.34,-20,36.5,t
2,10,9,7,2,0,1,0,7,8,1,1.19,-21.8,36.8,t
3,14,11,8,2,0,0,0,7,8,1,1.11,-20.3,36.8,t
3,15,12,7,1,0,0,0,7,8,1,0.938,-20.5,37.5,t
3,14,14,8,1,1,0,0,7,8,1,1.43,-20.5,37.4,t
3,14,17,6,1,0,0,0,7,8,1,1.15,-20,37.1,t
3,17,18,5,1,0,0,0,7,8,1,1.13,-20.1,37.2,t
3,17,17,6,1,1,0,0,7,8,1,1.07,-20.6,37,t
3,18,18,6,1,1,1,0,7,8,1,1.05,-20.6,37,t
3,16,16,6,1,1,1,0,7,8,1,1.15,-20.4,37,t
2,14,15,5,1,1,1,1,7,8,1,1.07,-20.2,36.8,t
0,0,0,0,0,0,0,0,0,0,0,0,0,0,SPACE
3,3,3,3,3,3,3,3,7,9,1,-0.723,-24.5,34.7,t
3,3,3,3,3,3,3,3,7,9,1,0.215,-23.1,34.5,t
3,3,3,3,3,3,3,3,7,9,1,-0.332,-24,34.9,t
3,3,3,3,3,3,3,3,7,9,1,-0.117,-25,34.8,t
0,3,13,23,3,2,2,1,7,9,1,0.117,-24.7,33.4,t
0,4,19,24,3,2,2,3,7,9,1,-0.547,-24.7,34,t
3,6,18,23,3,3,5,11,7,9,1,-0.508,-24.8,34.9,t
4,5,16,21,4,3,5,16,7,9,1,-0.43,-26.6,34.6,t
7,5,16,28,5,5,12,17,7,9,1,0.508,-28,33.4,t
8,7,18,31,5,5,12,17,6,9,1,-0.82,-28.5,32,t
9,7,20,26,5,6,18,19,6,9,1,-2.58,-30.7,30.9,t
10,6,24,26,6,7,18,19,6,9,1,-7.01,-26,30,t
14,8,35,29,7,10,22,23,6,9,1,-7.46,-35.7,29.3,t
14,8,41,27,7,14,29,24,6,10,1,-9.43,-29.9,30,t
13,7,41,26,7,14,30,18,6,10,1,-11.6,-32.7,28.7,t
15,8,43,27,6,14,45,14,6,10,1,-13.4,-30.9,27.4,t
15,10,53,17,6,14,39,19,6,11,1,-13.8,-30.8,27.7,t
15,8,56,14,6,14,49,20,6,11,2,-17.4,-29.2,25.9,t
17,10,65,13,8,17,53,22,6,12,2,-18.7,-27.6,25.7,t
17,11,60,15,8,18,59,21,6,12,2,-19.6,-25.5,25.7,t
15,11,51,16,7,16,55,17,6,12,2,-21.5,-23.7,25.1,t
16,12,45,14,6,14,60,17,6,13,2,-22.8,-22,24.8,t
15,11,56,17,8,26,69,19,6,13,3,-22.8,-21.2,23.4,t
16,10,67,16,9,28,54,18,6,13,3,-25.4,-18.2,22.9,t
16,11,60,17,10,32,66,16,7,13,3,-26,-19.2,22.9,t
19,11,58,18,9,38,60,15,7,13,3,-27.7,-15.9,23.7,t
16,8,52,19,8,35,55,13,7,13,3,-28.4,-16.8,23.8,t
19,10,49,17,8,37,58,19,7,13,3,-28.1,-13.3,25.7,t
19,11,49,14,8,37,61,19,7,13,3,-28.7,-16.6,26.3,t
20,10,45,18,9,35,49,18,7,13,3,-31.1,-15.1,27.9,t
21,10,34,18,9,22,36,17,7,13,3,-33.3,-13,29.7,t
16,10,25,18,9,21,41,16,7,13,3,-35.2,-13.6,29.3,t
15,13,31,23,7,14,29,13,7,13,3,-35.1,-15.1,26.9,t
14,14,41,28,8,8,26,12,7,13,2,-33.3,-18.1,24.6,t
13,15,48,31,7,9,20,15,7,13,2,-31.5,-19.1,23.5,t
10,14,55,30,6,10,12,10,6,13,2,-28.6,-21.8,21.3,t
9,12,56,35,6,9,10,10,6,13,2,-25.4,-23.1,20.5,t
11,16,63,33,6,9,11,14,6,12,1,-20.6,-25.7,19,t
11,16,62,34,6,11,19,15,6,11,1,-16.5,-28,18.8,t
14,18,63,35,6,11,19,16,6,11,1,-11.6,-27.6,19.1,t
14,14,59,38,5,11,23,21,5,11,0,-8.24,-29.8,17.3,t
14,14,53,32,6,11,30,26,5,10,0,-7.56,-32.9,16.9,t
15,12,47,28,7,10,35,26,5,10,0,-8.96,-36.4,17.8,t
15,19,47,30,9,8,39,28,5,10,0,-9.9,-37.6,17.8,t
15,22,46,23,9,9,39,28,5,10,0,-12,-38.3,18.9,t
14,24,45,23,9,9,39,28,5,10,0,-11.4,-38.2,18.1,t
13,31,57,25,9,8,37,30,5,10,0,-10.6,-36,17.9,t
15,31,64,24,10,7,34,33,5,10,0,-10.7,-36.9,17.2,t
13,32,71,16,11,7,30,29,5,10,0,-10,-35.3,16.1,t
14,32,71,16,10,8,30,25,5,10,0,-10.1,-36.4,16.7,t
15,34,70,18,9,6,28,22,5,10,0,-9.36,-34.2,17.2,t
14,27,69,14,9,6,23,20,5,10,0,-7.6,-33.1,18.4,t
15,23,70,14,11,5,22,19,5,10,0,-6.15,-36.1,18.2,t
12,17,63,12,8,6,22,15,6,10,0,-7.32,-31.5,19.2,t
11,10,54,8,8,6,16,10,6,10,1,-8.42,-27.1,24,t
7,7,45,10,8,5,13,6,7,10,1,-10.4,-22.5,28,t
7,7,32,9,7,5,12,5,7,10,1,-8.98,-19.4,30.2,t
5,6,26,11,7,4,5,3,7,10,1,-8.13,-19.6,33.4,t
2,4,24,9,8,4,2,2,7,9,1,-8.59,-18.6,37.2,t
3,2,20,12,7,3,2,1,7,9,1,-5.31,-19.8,40.9,t
2,2,20,13,6,3,2,1,7,9,2,-6.6,-22.9,42.3,t
1,2,19,14,6,2,1,1,7,9,2,-2.7,-22.5,43.2,t
2,4,16,13,7,2,1,1,7,8,2,-2.56,-24,41.1,t
2,5,15,11,7,4,1,1,7,8,2,0.586,-21.2,39.7,t
2,5,17,13,7,4,1,1,7,8,2,0.547,-22.2,38.2,t
2,5,17,11,7,4,1,1,7,8,2,2.07,-22.9,36.6,t
2,5,13,10,5,5,1,1,7,8,2,1.66,-21.5,36.3,t
2,8,14,7,5,5,1,1,7,8,1,0.957,-22.6,37.9,t
2,9,14,8,5,5,1,1,7,8,1,-0.391,-21.7,37.9,t
2,8,13,8,5,4,1,1,7,8,1,0.0391,-25,37.3,t
2,6,14,8,3,4,1,1,7,8,1,0.938,-23.7,34.5,t
2,6,12,7,3,2,1,1,7,8,1,2.05,-23.8,34.2,t
1,6,13,6,3,2,1,1,7,8,1,3.46,-23.7,35.6,t
1,6,12,6,3,1,1,1,7,8,1,2.38,-22.9,36.4,t
1,6,14,7,3,1,1,0,7,8,1,1.78,-21.1,36.7,t
1,4,11,7,3,1,1,0,7,8,1,0.664,-21.3,37.1,t
2,3,9,6,2,1,1,0,7,8,1,0.273,-21.6,36.4,t
2,3,10,5,2,1,1,0,7,8,1,0.449,-21.6,36.5,t
2,3,8,6,2,1,1,0,7,8,1,0.41,-21.6,36.5,t
1,3,9,6,2,1,1,0,7,9,1,0.273,-21.4,36.8,t
2,3,6,7,2,1,1,0,7,9,1,0.234,-21.4,36.5,t
2,4,7,7,2,1,1,0,7,9,1,0.0586,-21,36.7,t
2,4,6,7,2,1,1,0,7,9,1,0.156,-21,36.5,t
2,3,6,6,2,1,1,0,7,9,1,0.0781,-21.4,36.8,t
2,6,10,7,2,1,1,0,7,9,1,0.215,-21.6,36.3,t
2,8,11,6,2,1,1,1,7,9,1,0.0781,-21.5,36.6,t
3,10,18,7,1,1,1,1,7,9,1,0.176,-21.4,36.5,t
4,10,19,6,1,1,1,1,7,9,1,0.371,-21.5,36.4,t
4,10,20,5,1,1,1,1,7,9,1,0.176,-21.4,36.3,t
4,13,21,7,1,1,1,1,7,9,1,0.0977,-21.5,36.6,t
4,14,19,8,1,0,1,1,7,9,1,-0.0781,-21.7,36.6,t
4,15,18,8,1,0,1,1,7,9,1,0.117,-21.6,36.5,t
4,13,15,6,1,0,1,1,7,9,1,0.332,-21.3,36.6,t
4,10,14,7,0,0,1,2,7,9,1,0.0391,-21.4,36.5,t
3,9,9,6,1,0,1,1,7,9,1,0.215,-21.2,36.4,t
2,11,8,6,1,0,1,1,7,9,1,0.273,-21.6,36.3,t
2,13,7,8,1,1,1,1,7,9,1,0.0781,-21.8,36.5,t
2,10,8,7,1,1,1,1,7,9,1,0.0586,-21.6,36.3,t
2,9,9,7,1,1,0,1,7,9,1,0.234,-21.4,36.5,t
1,8,9,9,2,1,1,1,7,9,1,-0.0195,-21.6,36.4,t
0,0,0,0,0,0,0,0,0,0,0,0,0,0,SPACE
3,3,3,3,3,3,3,3,7,8,1,-0.0977,-22,35.5,t
3,3,3,3,3,3,3,3,7,8,1,-0.234,-21.7,35.9,t
3,3,3,3,3,3,3,3,7,8,1,1.05,-20.3,36.6,t
3,3,3,3,3,3,3,3,7,8,1,0.664,-22.9,36,t
8,17,23,15,3,4,24,4,7,8,1,1.19,-24.1,35.1,t
7,16,23,14,3,4,27,6,7,8,1,0.918,-23.3,35.2,t
7,15,21,18,4,5,24,9,7,8,1,1.66,-22,34.5,t
10,14,20,18,6,6,24,10,7,8,1,3.71,-23.4,34.4,t
9,13,24,28,6,5,22,11,7,8,1,2.5,-28,34,t
8,12,29,29,6,7,19,15,6,8,1,-3.18,-29.8,33.4,t
10,15,30,27,10,9,24,15,6,9,1,-0.703,-28.8,33.6,t
9,15,32,28,11,11,27,17,6,10,2,-12.2,-31.5,30.6,t
10,12,26,28,11,11,29,20,6,10,2,-17.8,-29.6,28.9,t
10,11,28,32,11,12,25,19,6,11,2,-18.7,-30.2,28,t
9,10,43,34,10,12,27,18,6,11,2,-21.6,-25.3,26.3,t
9,10,54,32,9,15,30,16,6,12,3,-23.2,-22.9,25.7,t
10,11,60,24,8,16,32,15,7,13,4,-22.6,-15.1,25.3,t
11,10,57,23,9,16,35,13,7,13,4,-24.6,-13.7,25.5,t
8,13,55,26,7,14,32,16,7,13,4,-22.5,-9.26,25.7,t
8,12,57,24,4,12,30,17,7,13,4,-28.6,-14.4,27.6,t
8,12,60,24,4,12,21,18,7,13,4,-29.7,-12.9,29.2,t
8,13,61,19,5,13,20,23,7,13,4,-32.7,-10.3,30.2,t
9,13,51,13,5,11,20,23,7,13,4,-34.7,-12.7,29.8,t
8,14,39,13,7,8,19,24,7,13,3,-35.3,-13.2,28.5,t
8,13,35,11,7,7,17,29,7,13,3,-33.3,-16.5,26.4,t
8,14,45,11,7,6,13,31,7,13,3,-29.2,-19.2,23.9,t
9,8,48,7,6,6,11,29,7,13,3,-28.6,-20.5,22.1,t
10,11,45,7,6,6,11,27,6,13,2,-27.1,-20.9,21.6,t
10,15,39,8,6,7,13,22,6,12,2,-22.9,-22.3,20.6,t
11,13,40,13,6,9,14,18,6,12,2,-18.2,-26.4,20.2,t
14,14,36,16,8,9,16,18,6,12,1,-17.2,-28.1,19.7,t
13,24,45,15,7,9,14,16,6,11,1,-15.3,-30.4,20.3,t
14,23,41,16,8,11,16,12,6,11,1,-11.7,-30.9,19.8,t
15,22,33,15,9,13,18,9,6,10,1,-9.14,-31.3,20,t
15,22,36,18,10,13,19,9,6,10,1,-6.04,-33.6,18.9,t
15,24,41,18,10,15,19,7,5,10,1,-5.74,-37,18.8,t
15,23,45,18,10,14,17,7,5,10,1,-6.76,-36.2,19,t
15,23,42,13,9,13,19,7,5,10,1,-7.6,-37.6,19.1,t
13,23,42,11,7,12,16,7,5,10,1,-9.53,-37.2,20.1,t
12,14,35,11,6,13,13,8,5,10,1,-9.69,-36.7,19.4,t
12,14,35,11,6,10,12,8,5,10,1,-9.57,-35.5,19.2,t
13,17,34,11,5,8,10,7,5,10,1,-9.98,-36.2,19.1,t
15,20,28,9,4,8,12,9,5,10,1,-9.96,-36,19.3,t
14,18,22,11,4,7,13,9,5,10,1,-9.82,-35.6,18.9,t
14,15,22,12,5,7,13,11,5,10,1,-10.4,-35.7,19.1,t
14,16,23,13,4,5,11,9,5,10,1,-9.75,-35.6,19.3,t
13,15,25,13,6,5,11,9,5,10,1,-10,-34.9,18.7,t
14,17,27,13,5,5,11,9,5,10,1,-10.6,-34.1,19.3,t
12,18,26,13,5,5,11,10,5,10,1,-10.4,-33.7,19.9,t
10,16,26,12,5,4,11,9,5,10,1,-10.5,-33.8,19.8,t
8,12,28,12,5,3,7,7,6,10,1,-10.2,-32.8,20,t
9,9,26,10,6,4,6,7,6,10,1,-10.7,-30.8,21,t
9,9,23,7,5,5,6,6,6,11,1,-12.7,-31.3,23.2,t
7,8,21,6,4,6,6,5,6,11,1,-14.1,-31.1,23,t
7,8,16,5,4,6,5,4,6,11,1,-14.8,-26.8,25.3,t
6,5,14,9,4,6,5,4,6,11,1,-17.8,-24.5,26.1,t
5,3,13,9,4,6,4,3,6,11,2,-15.8,-23.7,27,t
4,3,11,10,5,6,4,2,7,11,2,-16.4,-22.3,27.3,t
4,3,8,9,4,6,3,2,7,11,2,-14.7,-19.2,29.1,t
2,3,14,12,4,6,3,2,7,10,2,-13.5,-20.9,30.7,t
1,2,15,13,3,4,2,1,7,10,2,-14.7,-20.3,32.7,t
1,2,14,17,3,3,3,1,7,10,2,-9.06,-20.7,34.2,t
1,2,14,18,3,4,3,1,7,9,2,-9,-24.7,37.3,t
2,4,16,14,3,2,3,1,7,9,2,-4.9,-26.4,37.3,t
2,4,20,14,5,3,3,1,7,9,2,-5.27,-24.8,39,t
2,5,21,15,6,3,4,1,7,8,2,-2.42,-24.1,37.8,t
2,5,20,16,6,3,4,1,7,8,2,-1.6,-24.3,34.3,t
2,5,16,15,5,3,4,1,7,8,2,-2.79,-24.9,41.6,t
2,6,13,13,5,3,4,1,7,8,2,2.62,-24.8,37.1,t
2,7,16,9,5,3,4,1,7,8,2,3.71,-27.3,40.4,t
2,8,16,10,5,3,3,1,7,8,2,2.42,-18.6,37.5,t
2,7,14,11,5,3,3,1,7,8,2,3.03,-21.6,35.7,t
2,6,10,11,3,3,3,1,7,8,2,3.09,-21.4,36.9,t
2,6,10,10,3,2,2,1,7,8,2,2.62,-19.1,37.3,t
2,11,11,10,2,3,2,1,7,8,2,2.42,-17.4,39,t
2,10,10,9,3,2,1,1,7,8,2,1.6,-16.3,39.2,t
2,10,9,10,3,2,1,1,7,8,2,1.46,-16.7,39.1,t
2,9,8,9,3,1,0,1,7,8,2,1.04,-17.6,38.8,t
1,8,12,11,2,1,0,1,7,8,2,0.664,-17.4,38.9,t
1,8,15,10,3,1,0,1,7,8,2,1.07,-17.7,38.9,t
2,8,14,10,2,1,0,0,7,8,2,1.09,-17,38.7,t
2,9,15,8,1,1,0,1,7,8,2,1.15,-17.1,38.6,t
2,4,15,8,1,1,0,1,7,8,2,1.17,-17.7,38.8,t
2,5,15,9,1,1,0,1,7,8,2,0.586,-17.5,38.9,t
2,8,16,9,1,1,1,1,7,8,2,1.05,-17.6,38.8,t
2,8,14,8,1,1,1,1,7,8,2,0.84,-16.8,38.8,t
2,9,10,6,1,1,1,1,7,8,2,0.605,-17.5,38.7,t
2,8,9,5,1,1,1,1,7,8,2,0.566,-17.2,38.9,t
2,8,10,10,1,1,1,1,7,8,2,0.566,-17.5,38.9,t
2,8,9,10,2,1,1,1,7,8,2,0.547,-17.3,38.8,t
2,9,9,9,2,0,1,1,7,8,2,0.742,-16.9,38.5,t
2,9,11,7,2,1,1,1,7,8,2,0.488,-18,39.1,t
3,8,10,8,2,0,1,1,7,8,2,0.742,-16.8,39.1,t
3,9,13,9,2,0,1,1,7,8,2,0.449,-17.1,38.5,t
3,7,13,9,2,0,1,1,7,8,2,0.449,-17.7,38.6,t
3,7,10,11,2,1,1,1,7,8,2,0.488,-17.3,38.6,t
3,7,10,6,2,1,1,1,7,8,2,0.488,-17.2,38.7,t
3,7,9,6,2,1,1,1,7,8,2,0.371,-16.3,38.2,t
3,5,9,6,2,1,1,1,7,8,2,0.137,-17.3,38.5,t
3,7,5,7,2,0,0,1,7,8,2,0.469,-17.1,38.6,t
0,0,0,0,0,0,0,0,0,0,0,0,0,0,SPACE
3,3,3,3,3,3,3,3,7,9,1,-0.352,-20.6,36.5,t
3,3,3,3,3,3,3,3,7,9,1,0,-22,36.5,t
3,3,3,3,3,3,3,3,7,8,1,0.332,-19.9,37.1,t
3,3,3,3,3,3,3,3,7,8,2,0.488,-20.7,36.6,t
7,8,36,28,2,1,3,3,7,8,2,0.586,-22.8,35.9,t
6,7,34,25,2,1,2,2,7,8,2,0.918,-22.9,36,t
6,9,33,23,1,1,2,2,7,8,2,0.781,-24.7,35,t
6,8,32,20,3,1,2,2,7,8,2,0.762,-24.7,34.3,t
6,8,40,22,3,1,6,3,7,8,2,0.762,-26.3,34.9,t
6,8,46,23,3,0,6,3,7,8,2,1.41,-27.2,34.5,t
7,8,34,16,3,0,8,6,6,9,2,-0.742,-29.7,33.3,t
7,6,32,26,3,1,15,7,6,9,2,-5.14,-30.2,33.1,t
12,6,34,23,4,3,25,11,6,9,2,-7.38,-30.7,31.6,t
12,7,40,22,5,4,28,12,6,10,2,-11.9,-28.4,30.2,t
16,7,44,21,7,7,44,14,6,10,2,-14.4,-31,28.1,t
17,10,44,22,6,8,49,15,6,11,2,-15.3,-26,26.9,t
21,11,43,21,6,9,51,20,6,11,2,-17.1,-27.8,25.7,t
22,11,41,22,6,9,52,20,6,11,2,-18.3,-25.6,26.1,t
23,10,45,23,6,11,55,19,6,12,3,-21.5,-23.8,23.5,t
24,12,53,15,6,13,57,22,6,12,3,-23,-22.3,25.1,t
20,13,54,17,5,13,50,20,7,12,3,-22.8,-21.1,25.6,t
22,12,50,18,4,14,47,21,7,12,3,-22.3,-18.5,27.8,t
22,10,46,18,3,11,32,20,7,13,4,-22.1,-17.5,28.4,t
21,10,57,19,4,13,29,23,7,13,4,-22.1,-17.1,27.6,t
17,10,52,18,6,15,35,17,7,13,4,-25.2,-16.9,27.3,t
17,10,54,19,7,16,35,19,7,13,4,-26.3,-16.5,28.2,t
15,12,50,18,6,16,31,20,7,13,4,-25.3,-14.8,29.2,t
14,14,39,18,7,14,24,19,7,13,4,-24.8,-16.2,29.8,t
14,13,42,16,7,13,25,18,7,13,4,-26.3,-15,31.8,t
14,13,39,14,8,12,25,17,7,13,4,-29.6,-14,33.8,t
12,14,45,22,7,12,25,15,7,13,4,-30.3,-16.7,31.4,t
14,13,33,23,5,12,26,14,7,12,3,-31.2,-17.3,29.6,t
14,14,38,21,4,9,16,15,7,12,3,-27.8,-21.1,27.4,t
14,15,30,18,3,10,20,13,7,12,3,-27.4,-22.1,26.8,t
17,18,37,18,3,9,19,11,7,12,3,-22.9,-24.9,25.4,t
16,17,38,17,3,9,19,8,6,12,2,-23.6,-23.7,25.1,t
15,17,36,21,3,13,17,10,6,12,2,-21.3,-23.7,24.1,t
12,17,34,26,3,13,23,10,6,12,2,-18.8,-24.6,24,t
11,16,25,18,3,13,26,10,6,12,2,-17.6,-26.5,22.3,t
10,16,23,18,4,13,26,8,6,11,2,-15.6,-25.2,22.2,t
13,17,26,23,5,14,30,11,6,11,1,-13.4,-28.4,22.3,t
12,20,34,26,4,11,30,10,6,11,1,-11.4,-27.5,22.4,t
9,14,32,24,4,11,29,10,6,10,1,-9.79,-30.9,20.8,t
7,13,34,23,4,12,31,10,6,10,1,-9.2,-31.2,20.9,t
9,13,30,21,4,10,30,9,6,10,1,-8.87,-33.2,21.5,t
10,15,30,15,4,9,26,13,6,10,1,-8.81,-34.9,20.7,t
12,13,37,16,4,9,22,13,6,10,1,-7.68,-34.5,19.9,t
11,13,43,14,4,8,23,17,5,10,1,-7.42,-35.3,19.2,t
8,14,33,10,4,8,18,17,5,10,1,-6.48,-35.8,18.4,t
8,12,29,5,4,8,17,21,5,10,1,-7.32,-37.2,17.8,t
8,14,30,7,4,7,17,21,5,10,1,-8.48,-37.7,17.6,t
10,13,27,7,4,7,14,22,5,10,1,-8.79,-39.2,18.2,t
10,14,34,5,5,6,14,23,5,10,1,-8.89,-37.5,17.4,t
10,14,39,6,5,7,13,21,5,10,1,-9.79,-37.1,17.2,t
10,21,40,9,6,7,21,24,5,10,1,-10.7,-36.3,18.3,t
10,20,41,9,6,7,19,21,5,10,1,-10.5,-35.2,17.2,t
10,16,43,9,5,6,18,18,5,10,1,-11.4,-34.3,19,t
10,15,42,10,5,6,15,14,6,11,1,-12,-32.9,19.8,t
10,13,39,9,5,6,15,14,6,11,1,-11.6,-29.8,21,t
9,12,40,9,5,6,16,12,6,11,1,-13.2,-27.4,22.2,t
6,11,33,9,6,5,16,9,6,11,1,-14.6,-27.1,22.9,t
7,10,29,8,6,4,15,7,6,11,1,-13,-23.2,25.3,t
5,3,23,6,5,4,7,3,6,11,1,-14.4,-22,27.3,t
4,3,21,9,5,3,6,2,7,11,2,-12.3,-21.9,27.9,t
4,2,19,9,7,3,4,1,7,11,2,-13.5,-22.6,30.8,t
4,5,15,8,9,3,3,1,7,10,2,-11.5,-21.5,31.1,t
5,6,11,8,9,3,2,1,7,10,2,-11,-22.3,35,t
4,9,11,8,11,2,2,1,7,10,2,-9.34,-21.8,35.1,t
4,9,11,8,11,3,2,1,7,9,2,-7.85,-23.6,36.9,t
3,9,11,8,11,3,2,1,7,9,2,-7.11,-23.2,37.5,t
3,9,13,8,13,3,1,2,7,9,2,-5.64,-23.6,40.8,t
3,10,8,8,13,3,2,2,7,8,2,-4.3,-24.3,39.7,t
3,11,9,7,11,3,2,2,7,8,2,-1.91,-22.5,39.8,t
2,10,9,8,10,3,1,2,7,8,2,0.469,-23.1,37.6,t
2,10,9,8,11,4,2,2,7,8,2,2.52,-21.8,37.6,t
2,7,11,8,8,5,2,2,7,8,2,2.71,-20.8,36.8,t
2,8,12,8,7,4,2,2,7,8,2,4.14,-26,41.1,t
1,8,17,8,6,4,2,2,7,8,2,-0.273,-18.5,37.1,t
1,7,14,8,4,4,2,1,7,8,2,4.3,-21.7,35.4,t
1,8,14,5,4,4,2,1,7,8,2,5.08,-21.3,36.3,t
1,7,14,5,3,3,2,1,7,8,2,3.63,-21.2,36.6,t
1,5,15,4,2,3,2,1,7,8,2,2.46,-20.5,36.8,t
0,5,15,3,1,2,2,1,7,8,2,1.41,-21.2,37.6,t
1,4,14,3,2,1,2,1,7,8,2,1.27,-21,38,t
0,4,13,3,2,1,2,1,7,8,2,1.02,-19.9,38.5,t
1,4,7,3,2,1,2,1,7,8,2,0.762,-19.6,38,t
1,5,7,4,3,1,1,1,7,8,2,0.938,-19.3,37.6,t
1,4,9,4,2,1,1,1,7,8,2,0.801,-20,37.3,t
1,4,9,4,3,1,1,1,7,8,2,0.547,-20.5,37,t
1,4,8,4,3,1,1,1,7,8,2,0.43,-20.4,37.2,t
2,7,7,5,2,1,1,1,7,8,2,0.625,-20.7,37.3,t
1,7,9,5,2,1,1,0,7,8,2,0.566,-20.5,37.1,t
2,8,8,5,2,1,1,1,7,8,2,0.254,-20.2,36.9,t
2,8,9,6,2,1,1,1,7,9,2,0.176,-20.7,37.1,t
2,8,11,5,2,2,1,1,7,9,2,0.137,-20.8,37.1,t
2,9,10,5,2,2,1,1,7,9,2,0.117,-20.6,37,t
2,9,13,5,2,2,1,1,7,9,2,0.0586,-20.5,37.3,t
3,17,17,5,2,2,1,1,7,9,2,0.156,-20.3,37.2,t
3,14,16,5,2,2,1,1,7,9,2,0.234,-20.4,36.8,t
4,19,15,5,2,2,1,2,7,9,2,0.156,-20.8,37.3,t
0,0,0,0,0,0,0,0,0,0,0,0,0,0,SPACE
3,3,3,3,3,3,3,3,7,9,2,-0.234,-20.4,37.2,t
3,3,3,3,3,3,3,3,7,9,2,-0.0781,-21.5,36.9,t
3,3,3,3,3,3,3,3,7,9,2,0.469,-20.1,37.3,t
3,3,3,3,3,3,3,3,7,9,2,0.527,-20.2,37.2,t
3,9,9,13,1,1,2,3,7,8,2,-0.215,-20.9,36.7,t
3,9,9,12,1,1,2,3,7,8,2,0.371,-21.8,36.2,t
2,8,10,13,1,1,2,3,7,8,2,0.371,-21.4,36.7,t
2,7,9,13,1,1,2,2,7,8,2,0.566,-20.8,36.7,t
3,7,14,14,1,1,2,1,7,8,2,0.723,-20.9,36.9,t
3,6,14,14,1,1,3,1,7,8,2,0.488,-19.6,37.9,t
3,6,14,16,2,2,3,1,7,8,2,1.5,-20.9,37.9,t
4,5,18,18,2,2,3,2,7,8,2,1.25,-23.1,37.1,t
5,5,17,18,2,3,5,5,7,8,2,1.56,-25.9,35.8,t
5,4,16,17,2,3,8,6,7,9,2,-1.39,-28.8,35.6,t
6,5,16,15,3,3,10,9,7,9,2,-3.4,-26.9,35.6,t
8,7,28,21,4,3,17,14,6,9,2,-6.89,-29,34.2,t
9,7,26,22,4,6,18,15,6,9,2,-7.15,-28.3,34.3,t
9,10,26,26,8,9,26,16,6,10,2,-10.1,-28.8,31.3,t
10,12,28,24,8,9,27,18,6,10,2,-11.9,-27.6,29.6,t
9,10,29,21,8,9,30,17,6,11,2,-15.2,-27.8,28.1,t
8,13,29,20,8,11,29,14,6,11,3,-16.8,-26.2,27.7,t
7,14,36,21,9,17,27,16,6,12,3,-21,-22.7,28.3,t
7,13,35,24,8,22,27,12,7,12,3,-22.3,-21.5,28.2,t
5,13,23,16,9,23,20,7,7,12,3,-23.3,-19.8,28.2,t
4,15,26,15,10,26,20,8,7,12,4,-21.7,-17.4,28.2,t
4,13,32,13,7,23,13,6,7,13,4,-21.5,-16.7,28.3,t
3,10,33,14,6,26,12,5,7,13,4,-22.2,-14,27.4,t
4,10,35,15,8,28,14,12,7,13,4,-24.2,-14.8,27.2,t
4,9,36,17,8,26,14,14,7,13,4,-25.2,-14.4,27.3,t
6,12,32,18,9,24,16,13,7,13,4,-25.2,-12.9,27.4,t
7,15,36,15,8,20,16,14,7,13,4,-25.6,-9.59,28.6,t
7,13,42,17,7,19,16,15,7,13,4,-26.9,-12.5,30.6,t
6,13,46,17,5,14,15,14,7,13,4,-28.7,-10.1,32.3,t
6,15,47,12,6,15,16,15,7,13,4,-34.9,-11.8,32.6,t
6,18,47,16,8,14,17,15,7,13,4,-35.3,-13.4,31.4,t
7,20,48,18,6,11,13,7,7,13,3,-32.7,-18.3,29.4,t
7,19,51,18,5,11,16,6,7,12,3,-27.9,-19.3,27.1,t
6,19,57,18,5,9,14,9,7,12,3,-25.8,-22,25.3,t
7,21,68,24,6,11,19,11,7,12,2,-22.5,-24.2,24.3,t
9,24,76,25,7,14,23,10,6,12,2,-18.7,-25.2,24.1,t
10,22,73,26,7,14,25,13,6,12,2,-18.1,-24.7,24.2,t
11,23,74,26,6,13,29,13,6,11,2,-14.1,-27.8,24.3,t
11,21,75,24,4,12,32,12,6,11,2,-13.3,-26.6,24.3,t
10,19,72,24,5,12,31,13,6,11,2,-9.8,-26.9,23.2,t
10,20,74,22,6,15,28,14,6,10,1,-7.32,-27.9,22.7,t
10,16,76,22,6,13,30,14,6,10,1,-7.36,-30.4,21.9,t
14,13,62,16,5,9,25,15,6,10,1,-6.8,-32.3,22,t
12,14,47,15,5,9,32,15,6,10,1,-6.13,-31.8,21.6,t
16,14,54,15,5,8,30,22,6,9,1,-6.29,-34.8,20.9,t
16,12,45,15,6,9,27,23,6,9,1,-6.48,-35.5,21.5,t
16,16,44,18,9,10,24,27,6,9,1,-6.19,-36.8,21.1,t
17,17,40,15,8,9,24,34,5,9,1,-6.31,-36.8,21,t
17,17,37,17,8,6,30,31,5,9,1,-5.96,-37.1,20.2,t
19,20,35,16,8,7,28,30,5,9,1,-5.68,-37.6,20.1,t
14,20,37,19,8,8,34,30,5,9,1,-5.94,-36.5,20.2,t
19,26,45,19,8,7,22,30,5,9,1,-6.07,-36.2,19.8,t
14,29,41,20,10,7,22,23,5,10,1,-6.58,-36.1,20.4,t
16,29,41,20,9,5,24,24,6,10,1,-7.68,-34.5,19.6,t
18,29,41,16,6,4,25,23,6,10,1,-8.61,-33.9,20.3,t
21,29,40,15,6,4,25,17,6,10,1,-9.84,-32.6,22.4,t
20,28,41,14,7,4,18,17,6,10,1,-8.75,-28.5,20.5,t
18,25,34,16,8,3,18,16,6,11,1,-10.6,-26.6,23.3,t
18,25,33,13,7,1,11,12,6,11,2,-12.6,-23.9,22.9,t
14,15,27,12,8,1,12,12,6,11,2,-15.4,-25.4,26.8,t
13,11,22,9,7,2,10,8,7,11,2,-18.1,-20.2,28.5,t
9,10,22,9,7,2,6,6,7,11,2,-15,-20.7,30.4,t
7,5,18,9,7,2,5,3,7,11,2,-16.2,-17.4,34.3,t
2,4,18,9,7,3,4,2,7,10,2,-12.9,-19.1,33.5,t
2,3,15,7,6,3,3,3,7,10,2,-8.77,-17,34.9,t
1,3,15,7,6,4,3,2,7,10,2,-6.52,-17.9,36.1,t
1,3,16,7,10,4,3,2,7,9,2,-7.13,-19.3,39.6,t
1,3,21,7,11,4,3,2,7,9,2,-6.19,-21.1,37.3,t
2,5,23,8,10,3,3,2,7,9,2,-4.45,-19.6,40.6,t
2,9,26,6,11,3,3,2,7,8,2,-5.64,-22.4,38.7,t
2,9,31,10,11,3,3,2,7,8,2,-3.11,-20.1,40,t
2,9,30,9,10,3,2,2,7,8,2,-5.18,-21.6,41,t
3,12,33,14,11,2,3,1,7,8,2,-0.195,-23.2,40.4,t
3,11,32,13,9,2,2,1,7,8,2,1.86,-22.5,39,t
3,12,29,12,5,2,2,1,7,8,2,6.46,-30,40.3,t
3,13,22,12,3,3,3,1,7,8,2,-1.19,-18.7,37.7,t
3,12,16,13,3,3,3,1,7,8,2,3.67,-21.6,37.1,t
3,8,14,13,2,3,2,1,7,8,2,4.24,-23.4,36.9,t
3,9,8,10,2,3,2,1,7,8,2,2.68,-21.9,37.6,t
4,10,14,13,2,3,2,1,7,8,2,1.11,-21.7,37.8,t
3,7,11,8,2,3,2,1,7,8,2,0.156,-22.5,37.7,t
3,8,11,9,2,3,2,1,7,8,2,0.664,-22.6,36.8,t
2,8,11,9,2,2,2,1,7,8,2,0.547,-21.9,36.4,t
2,7,10,9,2,1,1,0,7,8,2,0.957,-21.9,36,t
1,7,10,7,2,1,1,0,7,8,2,0.352,-21.8,36.3,t
2,7,10,8,2,1,0,1,7,8,2,0.664,-21.8,36.6,t
1,8,10,9,2,1,1,1,7,8,2,0.742,-21.3,36.5,t
1,7,6,6,3,1,1,0,7,9,2,0.293,-21.5,36.8,t
1,8,6,6,3,1,0,1,7,9,2,0.43,-21.1,36.4,t
1,8,6,5,2,1,1,1,7,9,2,0.117,-21.3,36.4,t
1,9,8,4,2,1,1,1,7,9,2,0.215,-22.2,36.3,t
2,9,10,4,2,1,0,1,7,9,2,0.605,-21.5,36.4,t
2,8,12,4,1,1,1,1,7,9,2,0.352,-21.3,36.7,t
2,7,12,4,1,1,1,1,7,8,2,0.293,-21.6,36.3,t
2,6,12,3,1,1,1,1,7,9,2,0.43,-21.5,36.4,t
2,9,11,3,1,1,1,1,7,8,2,0.313,-21.9,36.1,t
0,0,0,0,0,0,0,0,0,0,0,0,0,0,SPACE
3,3,3,3,3,3,3,3,7,9,2,-0.801,-22.6,35.3,t
3,3,3,3,3,3,3,3,7,9,2,-0.82,-21.9,36.7,t
3,3,3,3,3,3,3,3,7,9,2,-0.859,-19.8,36.3,t
3,3,3,3,3,3,3,3,7,8,2,0.332,-25.2,35.1,t
8,4,32,22,3,2,14,6,7,8,2,1.09,-25,33.2,t
8,3,26,22,3,2,13,7,7,8,2,0.273,-26.7,33.9,t
8,7,30,26,3,2,12,8,7,9,2,-2.38,-26.4,35,t
8,8,35,28,3,3,11,8,7,9,2,-1.95,-30.5,35.1,t
9,9,44,28,5,4,8,8,7,9,2,-4.14,-28.2,35.1,t
9,10,51,32,6,4,10,8,7,9,2,-6,-27.5,34.4,t
12,11,51,29,6,6,9,10,6,10,2,-8.11,-29.2,33.1,t
14,11,61,31,6,6,13,14,6,10,2,-9.45,-28.4,31.3,t
16,10,67,31,7,7,15,14,6,10,3,-12.2,-25.9,30.5,t
15,10,75,31,7,8,19,21,6,11,3,-14.6,-27.8,29,t
18,8,73,27,7,9,18,25,6,11,3,-16.1,-25.7,28.1,t
17,6,70,25,7,8,20,24,7,11,3,-19.5,-24.6,27.6,t
17,7,71,30,6,8,21,25,7,12,3,-20.7,-21.4,27.2,t
19,6,68,27,5,8,20,24,7,12,3,-22.1,-21,26.3,t
15,5,73,27,4,8,21,24,7,12,4,-23.5,-17,26.7,t
13,6,73,24,6,12,26,22,7,13,4,-23.9,-17.1,26.6,t
11,9,67,22,6,13,35,26,7,13,4,-23.9,-15.3,27.2,t
14,10,72,23,7,12,33,24,7,13,4,-25.7,-16.3,27,t
10,11,68,21,9,13,38,19,7,13,5,-25.3,-15,28.7,t
11,11,66,18,10,16,43,19,7,13,5,-25.2,-15.1,28.7,t
8,10,62,13,10,18,48,18,7,13,5,-26.4,-12.7,29.1,t
6,11,60,13,12,17,49,19,7,13,5,-26.5,-11.5,27.9,t
9,11,49,13,12,18,49,17,7,13,5,-26.7,-14,28.7,t
10,11,40,14,11,15,41,16,7,13,5,-28.8,-11.3,29.7,t
12,12,44,12,9,14,30,14,7,13,5,-29.9,-10.2,31,t
10,13,39,13,9,14,36,10,7,13,5,-32.4,-8.77,32.2,t
11,14,46,13,8,14,31,10,7,13,5,-34.1,-9.98,31.3,t
11,15,49,16,6,12,24,14,7,13,5,-33.9,-10,30.2,t
11,19,55,16,6,9,21,14,7,13,4,-35.4,-12,28.8,t
12,21,63,16,5,10,21,12,7,13,4,-34.4,-13.7,27.5,t
12,23,76,17,6,8,25,22,7,13,4,-32.2,-15.2,25.4,t
12,23,79,15,5,7,29,21,7,13,4,-28.8,-15.7,22.9,t
14,25,80,21,6,6,29,20,7,13,3,-25.6,-17.8,22.2,t
14,25,72,20,5,7,22,20,7,13,3,-25.1,-19.1,21.6,t
13,25,71,27,7,5,26,22,6,13,3,-22.6,-21.9,22.4,t
14,24,71,29,8,6,33,20,6,12,3,-21.3,-23.1,21.2,t
16,23,71,30,9,6,42,27,6,12,2,-18.7,-23.6,21.9,t
16,24,60,31,9,7,45,31,6,12,2,-17.7,-26.6,21.8,t
14,22,58,31,8,7,39,24,6,11,2,-15.8,-27.4,21.2,t
16,22,52,31,9,7,37,24,6,11,2,-15,-31.2,21.6,t
16,24,46,27,10,9,39,24,6,11,2,-14.5,-31.4,21.3,t
17,25,47,26,10,9,42,26,6,10,2,-12.5,-32.5,21.6,t
20,29,44,20,9,9,43,26,6,10,2,-9.06,-33.4,20.4,t
20,31,38,18,8,9,37,26,6,10,1,-6.68,-32.2,20,t
21,37,32,15,10,8,30,17,5,9,1,-3.79,-35.3,18.8,t
20,32,30,13,12,7,24,20,5,9,1,-6.15,-39.2,19.6,t
24,40,18,19,14,8,25,19,5,9,1,-6.74,-39.9,19.8,t
20,40,19,20,13,9,25,26,5,9,1,-7.91,-39.4,19.3,t
17,32,20,17,12,7,23,26,5,10,1,-7.81,-37.9,18.6,t
18,30,26,17,12,8,20,31,5,10,1,-8.2,-38.1,18.6,t
15,27,23,16,13,9,17,28,5,10,1,-7.48,-35.5,18.1,t
19,27,24,18,14,10,20,29,5,10,1,-8.03,-35.3,18.2,t
16,20,19,17,13,9,22,31,5,10,1,-8.71,-34.7,17.9,t
15,20,23,17,13,8,23,25,5,10,1,-8.71,-33.8,18.4,t
13,13,28,11,12,9,24,23,5,10,1,-9.59,-35.4,19.1,t
14,12,29,9,12,7,29,19,5,10,1,-10.2,-35.1,19.2,t
17,19,37,12,13,10,29,22,5,10,1,-10.2,-35,19.6,t
16,22,34,14,13,10,28,14,5,10,1,-10.5,-34.4,20.1,t
17,19,39,15,12,9,28,17,5,10,1,-10.4,-34.3,20.9,t
12,17,40,11,12,9,26,20,5,10,1,-11.6,-34.2,20.8,t
15,23,39,11,12,11,23,22,6,10,1,-11.8,-34.1,20.9,t
18,31,37,11,10,12,26,24,6,10,1,-12,-33.6,20.6,t
19,31,32,15,8,12,25,26,6,10,2,-14.8,-33.6,21.6,t
17,35,32,15,9,11,19,22,6,11,2,-14.2,-32.8,21.3,t
15,30,23,12,7,10,18,19,6,11,2,-14.2,-32.6,21.3,t
14,26,22,10,7,8,18,18,6,11,2,-13.9,-30.5,21.2,t
12,26,20,10,7,8,15,14,6,11,2,-12.7,-30.1,21.5,t
12,25,18,10,6,8,13,9,6,11,2,-13.8,-28.6,22.4,t
9,18,21,11,6,6,10,6,6,11,2,-15.1,-26.1,23.9,t
6,10,19,10,7,5,6,3,6,11,2,-16,-24.2,25,t
4,7,19,5,7,4,4,1,6,11,2,-17.1,-20.9,26.2,t
3,3,18,5,7,4,3,1,7,11,2,-17.5,-20.5,27.8,t
3,1,16,6,9,3,3,1,7,11,2,-18.6,-20.9,28.9,t
2,1,13,7,10,3,2,0,7,11,2,-17.5,-21.1,30.4,t
2,1,10,7,9,3,1,1,7,11,3,-16.5,-21.9,30.1,t
2,1,9,7,9,3,1,1,7,11,3,-13.1,-21.7,31.7,t
2,2,6,7,10,3,1,1,7,10,3,-12.6,-22.1,32.7,t
1,2,6,6,10,4,1,1,7,10,3,-15.1,-23.8,35.5,t
2,3,6,7,9,5,2,2,7,9,3,-8.16,-25.5,36.4,t
2,4,8,7,8,5,2,2,7,9,3,-8.69,-25.5,38.1,t
2,4,8,5,7,5,2,2,7,9,3,-5.21,-27.1,36.4,t
2,4,13,5,8,5,2,2,7,9,3,-3.83,-26.9,36.9,t
2,4,21,4,8,5,1,1,7,9,3,-3.79,-26.2,36.4,t
2,4,20,3,7,5,1,1,7,8,3,-0.801,-26.8,36.3,t
2,4,23,4,5,4,1,1,7,8,3,-1.82,-27.5,37.7,t
1,4,24,4,4,3,1,1,7,8,3,0.273,-26.9,36.2,t
1,3,25,4,4,3,0,0,7,8,3,0.273,-26.9,36.2,t
1,4,22,4,5,3,0,1,7,8,3,2.75,-25,34.7,t
2,5,23,4,5,2,1,1,7,8,3,3.55,-24.6,34.4,t
1,5,20,3,3,2,0,0,7,8,3,3.83,-24.9,34.4,t
1,4,12,4,2,1,0,1,7,8,3,3.4,-24.5,34,t
1,4,11,4,3,1,0,1,7,8,3,3.34,-24,33.7,t
1,4,9,3,3,1,0,1,7,8,3,3.52,-23.7,34.4,t
1,4,7,3,4,1,1,1,7,8,3,2.83,-23.4,35.3,t
1,5,6,3,4,1,1,1,7,8,3,3.05,-23.8,36,t
1,4,7,3,3,1,1,1,7,8,2,2.83,-22.5,36.2,t
0,0,0,0,0,0,0,0,0,0,0,0,0,0,SPACE
3,3,3,3,3,3,3,3,7,9,4,-0.84,-24.6,33.7,t
3,3,3,3,3,3,3,3,7,9,4,-2.58,-24.9,33.8,t
3,3,3,3,3,3,3,3,7,9,4,-0.918,-24.2,33.7,t
3,3,3,3,3,3,3,3,7,9,4,-1.17,-24.1,34.5,t
6,15,19,20,3,6,9,8,7,9,4,-1.23,-25.4,34.7,t
6,13,19,25,3,5,10,7,7,9,4,-1.48,-25.3,33.9,t
5,13,19,22,3,5,10,7,7,9,4,-1.45,-24.4,34,t
6,12,19,21,6,5,9,6,7,9,3,-2.62,-22.4,34.7,t
4,10,21,25,7,4,9,7,7,9,4,-0.234,-26.9,34.9,t
4,10,27,27,7,5,16,10,6,9,4,2.38,-32.2,29.1,t
5,7,27,28,7,7,17,10,6,9,4,-2.17,-33.7,28,t
6,10,36,30,8,7,20,10,6,9,4,-7.68,-29.2,27.9,t
6,7,36,29,8,8,20,9,6,10,4,-12.8,-35,28.9,t
10,10,47,23,8,11,19,10,6,10,4,-14.3,-28.9,31.2,t
11,12,50,34,10,11,25,11,6,10,4,-14.4,-29.2,31.5,t
15,13,54,35,8,10,28,16,6,11,5,-16.1,-30.8,30.8,t
19,13,59,31,7,10,31,19,6,11,5,-19.3,-29,28.8,t
20,13,46,25,7,9,30,21,6,12,5,-21,-28,27.2,t
19,12,50,24,7,10,30,21,6,12,5,-22.1,-21.8,26.2,t
19,11,41,21,6,10,27,19,7,13,5,-22.1,-20.2,24.8,t
20,11,53,21,7,11,29,19,7,13,6,-22.3,-17,24.6,t
19,9,45,24,7,10,28,26,7,13,6,-23.7,-16.7,23.8,t
20,7,47,16,7,12,30,27,7,13,6,-26.1,-14.3,24.1,t
16,8,41,14,7,12,29,24,7,13,6,-26.2,-14.8,24.4,t
13,10,37,17,6,14,23,22,7,13,6,-25.6,-10.5,25.3,t
13,11,38,18,7,14,20,16,7,13,6,-26.6,-10.9,26.6,t
13,13,35,18,7,11,20,18,7,13,6,-27.5,-12.3,27.5,t
11,12,42,14,7,12,23,19,7,13,6,-30.4,-10.6,28.9,t
11,18,27,14,7,10,21,18,7,13,6,-32.8,-9.45,30.2,t
10,22,24,11,7,11,25,13,7,13,6,-34.9,-9.86,30.4,t
11,26,28,11,6,10,18,11,7,13,6,-35.3,-12.1,29.9,t
13,29,31,14,5,10,22,14,7,13,6,-35,-14.4,27.1,t
12,36,33,13,6,9,23,13,7,13,5,-34.5,-16.2,26.4,t
15,40,38,15,6,9,23,19,7,13,5,-32.5,-15.4,24.7,t
15,38,52,15,6,11,24,29,7,13,5,-29.5,-18.5,23.5,t
16,38,52,17,5,12,20,30,7,13,5,-29.7,-17.7,22,t
16,33,55,24,7,12,21,36,7,13,5,-29.2,-20.9,21.8,t
16,35,55,36,6,9,19,34,6,13,5,-28.1,-19.2,21.1,t
17,36,60,39,6,8,22,35,6,13,4,-25.8,-20.7,20.7,t
16,36,61,38,7,11,24,32,6,13,4,-24.3,-21.3,20.5,t
19,30,63,39,7,12,24,31,6,12,4,-23.5,-23.1,21.1,t
15,26,59,41,7,12,23,32,6,12,4,-22.6,-24.8,20.7,t
20,28,53,42,6,10,30,23,6,12,4,-19,-26.3,19.6,t
22,29,47,42,8,8,34,21,6,11,3,-16.7,-29.1,19.3,t
20,34,51,43,7,9,36,17,6,11,3,-14.4,-29.9,18.6,t
17,28,52,32,7,10,40,18,6,11,3,-14.6,-31.8,19.3,t
15,29,49,31,9,12,36,16,5,11,3,-12.4,-34.7,18,t
13,27,53,33,9,10,27,16,5,11,3,-12.7,-34.9,17.3,t
13,35,58,32,11,9,32,21,5,10,3,-13.5,-35.5,17.9,t
17,39,66,31,13,9,31,20,5,11,3,-13.8,-35.5,18.5,t
15,40,64,31,18,8,24,28,5,11,3,-14.7,-36,17.8,t
20,40,64,31,16,10,24,34,5,11,3,-15.1,-34.4,17.8,t
23,37,60,23,16,10,33,42,5,11,3,-15.5,-34.7,17.6,t
24,44,66,35,17,10,35,42,5,11,3,-16.6,-33.3,17.6,t
23,40,54,35,14,10,43,44,5,11,3,-16.7,-32.1,17.7,t
26,41,56,32,14,9,43,47,5,11,3,-18.4,-31.9,18,t
26,31,49,32,16,8,38,44,6,11,3,-19.3,-29.6,18.8,t
21,27,39,31,15,9,40,39,6,12,3,-19.5,-28,19,t
21,28,32,31,11,9,43,30,6,12,3,-18.8,-27,18.6,t
19,26,30,32,11,8,40,25,6,12,3,-20.4,-27.3,19.5,t
19,30,27,32,11,8,29,24,6,12,4,-19.4,-22.9,19.1,t
18,24,18,22,9,6,24,23,6,12,4,-20,-23.8,21.4,t
19,22,19,20,10,5,17,22,6,12,4,-18.2,-17,20.8,t
16,18,7,18,10,5,17,19,6,12,4,-19.7,-22.4,22.6,t
14,18,8,17,7,5,18,17,7,12,4,-23.2,-21.2,24.8,t
14,18,12,14,5,4,16,15,7,12,4,-18.5,-21.6,25.6,t
11,13,10,11,5,4,10,14,7,11,4,-19.2,-20.5,29.3,t
6,15,10,9,5,4,8,13,7,11,4,-15.2,-20.9,33,t
3,15,15,9,5,4,7,5,7,10,4,-11.5,-24.3,38,t
2,13,18,7,5,3,5,4,7,9,4,-8.13,-26.9,37.2,t
2,13,18,4,5,4,5,2,7,9,4,-5.12,-22.7,40.7,t
1,13,18,9,5,4,5,2,7,8,4,-2.4,-25.9,38.9,t
1,12,14,8,5,3,3,2,7,8,4,-2.13,-22.5,40.2,t
1,12,13,8,5,3,3,2,7,8,4,-0.918,-26.6,40.2,t
2,12,13,8,4,3,3,2,7,8,4,0.508,-22.3,41.4,t
1,14,14,8,4,3,3,1,7,8,4,1.19,-20.6,39.1,t
1,8,9,10,3,3,2,1,7,8,4,1.89,-21.4,35.7,t
2,10,9,11,4,3,2,1,7,8,4,2.52,-21,35.6,t
2,9,10,11,2,3,2,2,7,8,4,3.24,-22.4,37.5,t
2,9,10,6,2,3,2,1,7,8,4,1.66,-21.5,38,t
2,10,10,6,1,3,2,1,7,8,4,0.957,-19.2,38.1,t
2,10,8,6,2,2,2,1,7,8,4,0.723,-19.1,37.8,t
1,10,9,7,2,2,2,1,7,8,4,0.762,-19.8,38,t
1,9,11,9,1,2,1,1,7,8,4,1.02,-18.9,37.7,t
1,9,10,6,2,1,1,1,7,8,4,0.859,-19.3,37.6,t
1,7,15,6,2,1,1,1,7,8,4,0.41,-18.9,37.9,t
1,7,13,5,2,1,0,1,7,8,4,0.918,-18.4,37.9,t
1,8,13,6,2,1,0,1,7,8,4,0.586,-18.4,37.9,t
1,11,17,8,2,1,0,1,7,8,4,-0.0781,-18.6,38.1,t
2,15,18,8,2,1,0,1,7,9,4,0.0781,-18.2,38.1,t
2,16,18,7,2,1,0,1,7,9,4,0.117,-19.1,38,t
4,15,19,8,3,1,0,1,7,9,4,-0.0391,-18.8,37.9,t
4,16,20,8,2,1,0,1,7,9,4,-0.0781,-19,37.9,t
4,15,15,8,2,1,0,1,7,9,4,-0.137,-19.5,37.7,t
4,15,16,9,2,1,0,1,7,9,4,-0.156,-19.2,37.6,t
5,19,16,9,2,1,0,1,7,9,4,-0.273,-19.5,37.7,t
5,16,13,7,2,1,0,1,7,9,4,-0.117,-19.5,37.7,t
5,13,15,7,2,1,1,1,7,9,4,-0.254,-19.3,37.9,t
4,11,15,7,3,1,1,1,7,9,4,-0.195,-19.3,37.6,t
3,12,11,4,2,1,1,1,7,9,4,-0.352,-19.1,37.9,t
0,0,0,0,0,0,0,0,0,0,0,0,0,0,SPACE
3,3,3,3,3,3,3,3,7,9,4,-0.84,-23.5,34.9,t
3,3,3,3,3,3,3,3,7,9,4,-0.313,-22.7,35.1,t
3,3,3,3,3,3,3,3,7,9,4,-0.84,-22.4,35.3,t
3,3,3,3,3,3,3,3,7,9,4,-0.742,-22,35.4,t
4,5,22,30,2,1,2,2,7,9,4,-0.566,-24.7,34.6,t
5,8,27,28,3,2,2,2,7,9,4,-0.605,-24.9,35.2,t
5,11,25,27,3,2,6,3,7,9,4,-0.176,-23.6,35.1,t
4,11,28,29,3,2,7,3,7,9,4,-1.37,-24,35.7,t
4,11,28,28,3,2,8,2,7,9,4,-0.586,-23.3,35.6,t
5,14,24,29,6,4,9,6,7,9,4,0.391,-25.3,34.7,t
5,14,31,29,6,5,12,9,7,9,4,-0.625,-28.7,32.9,t
5,14,44,23,7,6,16,14,6,9,4,-3.63,-28.8,31.8,t
6,14,41,22,8,8,17,16,6,9,4,-4.65,-27.4,31.1,t
8,12,45,23,8,9,24,18,6,9,4,-6.64,-33.4,30.9,t
12,10,43,22,8,10,23,23,6,9,4,-6.99,-32.7,30.4,t
12,9,44,24,9,11,23,24,6,10,4,-10.8,-31.3,29.5,t
12,9,43,23,9,11,24,24,6,10,4,-14.7,-31,28.3,t
11,10,54,29,8,11,27,21,6,11,5,-16.2,-29.3,28.1,t
13,11,61,32,8,11,30,20,6,11,5,-19,-26.4,27.2,t
14,11,60,30,8,13,31,15,6,12,5,-21.3,-24.2,25.1,t
16,15,60,31,8,13,30,17,6,12,5,-23.2,-21.8,25.1,t
15,15,52,30,8,14,24,16,7,12,6,-23.5,-20.3,25.1,t
12,14,66,28,10,13,30,14,7,13,6,-24.3,-19.1,25.2,t
12,14,62,29,10,16,33,15,7,13,6,-23.5,-17.4,25.1,t
12,15,71,33,9,15,37,15,7,13,6,-25.1,-15.2,24.9,t
11,15,68,28,9,19,38,16,7,13,6,-26.8,-15.4,24.4,t
9,13,68,28,9,20,38,17,7,13,6,-28.5,-14.6,25.1,t
9,13,66,32,8,17,43,20,7,13,6,-27.4,-12.7,25.1,t
6,8,65,31,6,16,46,16,7,13,6,-28.7,-12.9,26.7,t
3,10,65,30,7,15,49,16,7,13,6,-30.9,-13.3,29.5,t
4,16,55,35,6,16,46,13,7,13,6,-33.3,-12.7,31.5,t
8,20,55,30,6,13,40,15,7,13,6,-37.9,-12,31.8,t
10,19,49,24,7,15,38,16,7,13,6,-37.2,-12.1,30.9,t
10,17,49,25,5,8,34,16,7,13,6,-36.9,-14.6,26.9,t
10,18,44,20,5,8,31,13,7,14,6,-36.2,-15.6,25.6,t
12,20,37,18,8,9,23,11,7,14,6,-33.7,-15.6,23.8,t
12,21,41,15,9,10,21,14,7,14,5,-33.1,-16.1,22.6,t
14,23,54,17,11,13,17,13,7,14,5,-28.2,-19,21.4,t
15,18,53,13,11,14,14,12,7,13,5,-28,-17.7,21.6,t
11,19,51,15,10,16,21,12,7,13,5,-26.5,-17,20.4,t
13,24,57,25,11,15,20,14,6,13,4,-27.7,-18.3,21.9,t
13,28,50,24,10,15,22,17,6,13,4,-26.5,-18.1,22.3,t
16,30,50,27,13,15,19,19,6,13,4,-23.3,-19.6,21.1,t
18,40,45,25,9,14,17,18,6,12,4,-19.3,-22.5,19.6,t
19,39,49,27,9,14,23,16,6,12,4,-13.4,-20.2,18.2,t
18,36,43,31,9,8,23,15,6,11,3,-12.3,-22.7,17.9,t
17,36,52,30,8,7,23,18,6,11,3,-12.9,-26.1,19.2,t
23,39,58,29,9,6,20,25,6,11,3,-14,-31,20.1,t
19,34,50,18,8,6,17,21,6,11,3,-14.6,-32,21.3,t
22,30,50,20,8,6,20,24,6,11,3,-16.8,-34.1,23.1,t
23,28,53,20,6,4,26,23,6,11,3,-15.9,-33.3,22.9,t
18,16,63,20,8,4,31,26,6,11,3,-15.7,-31.7,23,t
21,18,58,18,9,5,27,27,6,11,3,-15.9,-34.1,22.4,t
23,21,55,13,6,5,36,27,6,11,3,-15.8,-29.4,22.7,t
24,25,53,12,6,6,36,25,6,11,3,-15.8,-34.4,20.4,t
17,17,53,8,5,4,34,16,6,11,4,-15.7,-27.3,21.9,t
18,16,56,9,6,4,36,16,6,11,4,-15.6,-30.2,20.4,t
18,15,56,6,7,6,33,10,6,11,4,-16.2,-22.7,22.2,t
16,13,44,7,9,6,28,10,6,12,4,-16.2,-22.9,22.6,t
17,13,35,8,8,6,23,7,6,12,4,-18,-24.3,25.4,t
14,12,33,8,7,6,22,6,7,12,4,-17.8,-16.2,26.9,t
13,8,28,7,8,7,15,7,7,12,4,-21.1,-20.3,30.4,t
10,3,18,7,9,7,15,6,7,11,4,-17.9,-14.6,33,t
10,2,14,7,10,7,13,5,7,11,4,-18.1,-16.7,33.1,t
9,2,11,8,10,7,10,5,7,11,5,-14.3,-18.4,35.4,t
7,3,10,8,8,6,8,3,7,10,5,-13.8,-17.8,37.3,t
7,3,10,5,7,6,7,2,7,10,5,-13.1,-19.3,39.1,t
7,5,8,4,8,6,7,3,7,10,5,-8.65,-19.7,39.4,t
6,4,7,3,8,6,5,3,7,9,5,-7.93,-22.9,39.8,t
6,4,7,4,7,5,1,2,7,9,5,-5.31,-17.5,41,t
7,4,11,4,6,4,1,2,7,9,5,-4.08,-17.5,41.2,t
6,6,13,5,4,4,1,2,7,8,4,-0.273,-22,39.6,t
7,7,13,8,4,4,1,2,7,8,4,0.0195,-22,38.9,t
5,8,12,8,4,2,1,2,7,8,4,-0.859,-22.1,39.1,t
5,9,12,9,2,3,1,2,7,8,4,-2.68,-23.7,40.1,t
4,8,14,10,2,2,1,2,7,8,4,-2.48,-23.3,40.9,t
4,8,20,11,2,2,1,2,7,8,4,-3.85,-21,37.4,t
3,9,19,12,2,2,1,2,7,8,4,-0.176,-22.6,36.4,t
2,10,19,14,2,2,2,2,7,8,4,0.215,-21.8,37.3,t
2,9,17,16,2,2,2,2,7,9,4,0.645,-22.1,37.5,t
2,9,18,12,2,1,1,2,7,9,4,0.508,-20.9,37.6,t
1,11,19,13,1,1,1,1,7,9,4,0.176,-20.1,37.7,t
1,15,24,14,1,1,2,1,7,9,4,-0.156,-20.4,37.1,t
2,14,25,13,1,1,2,1,7,9,4,-0.41,-20.5,37,t
1,15,21,13,1,1,2,1,7,9,4,-0.41,-20.5,37,t
1,15,21,11,1,1,2,1,7,9,4,-0.684,-21.3,36.8,t
2,14,16,10,1,1,2,1,7,9,4,-0.352,-20.8,36.7,t
2,16,17,7,1,1,2,1,7,9,4,-0.566,-20,37.3,t
2,18,15,8,1,1,2,1,7,9,4,-0.957,-20.6,37,t
2,15,15,7,1,1,1,2,7,9,4,-0.605,-20.2,37.2,t
2,10,12,6,1,0,1,1,7,9,4,-0.703,-20.4,36.9,t
3,14,9,6,0,0,1,1,7,9,4,-0.703,-21,37,t
4,14,8,6,1,0,1,1,7,9,4,-0.566,-20.9,37.1,t
4,13,9,6,1,0,0,1,7,9,4,-0.156,-20.5,37,t
4,15,11,6,0,0,0,1,7,9,4,-0.664,-20.6,37,t
3,13,12,8,1,0,0,1,7,9,4,-0.645,-20.2,36.7,t
3,11,16,7,1,0,0,1,7,9,4,-0.703,-20.7,36.3,t
3,11,18,7,0,0,0,1,7,9,4,-0.645,-21.2,36.5,t
3,11,18,7,1,1,0,1,7,9,4,-0.605,-21.1,36.9,t
1,8,20,7,1,1,0,1,7,9,4,-0.742,-20.9,36.7,t
0,0,0,0,0,0,0,0,0,0,0,0,0,0,SPACE
3,3,3,3,3,3,3,3,7,9,4,-1.19,-22.9,35.4,t
3,3,3,3,3,3,3,3,7,9,4,-0.684,-23.5,35.6,t
3,3,3,3,3,3,3,3,7,9,4,-0.254,-22.9,35.3,t
3,3,3,3,3,3,3,3,7,9,4,-0.566,-22.9,34.7,t
6,16,42,20,3,2,3,2,7,9,4,-1.33,-22.9,35.2,t
6,17,37,20,2,1,2,2,7,9,4,-0.137,-23.1,35.5,t
6,17,34,18,2,1,2,3,7,9,4,0.0195,-22.2,35.7,t
5,17,32,17,2,1,2,2,7,9,4,-0.332,-22.5,36.3,t
4,18,21,18,1,1,2,3,7,9,4,-0.371,-22.9,36.3,t
3,18,12,15,1,1,2,4,7,9,4,-0.313,-22.3,36.3,t
3,18,14,23,1,1,3,4,7,9,4,-0.43,-21.7,36.2,t
2,14,14,25,1,1,4,3,7,9,4,-0.684,-21.8,36.7,t
2,13,16,24,1,1,4,3,7,9,4,-0.391,-21.6,37,t
4,10,17,26,1,2,8,6,7,9,4,0.313,-23.2,36.6,t
5,11,23,29,2,3,9,7,7,8,4,1.39,-23,35.9,t
6,8,26,31,2,3,13,7,7,9,4,-0.332,-26.1,35.8,t
6,7,33,35,3,3,13,6,7,9,4,-0.117,-28.5,34,t
8,8,43,37,5,3,14,7,7,9,4,-2.38,-28.1,35.2,t
9,9,47,31,5,5,20,7,7,9,4,-4.73,-26.8,34,t
10,8,56,32,6,6,22,11,6,9,5,-5.72,-28.4,34.3,t
11,8,62,32,6,7,26,11,6,10,5,-10.4,-27.8,32,t
10,9,67,28,6,7,27,10,6,10,5,-12.8,-28.4,30,t
11,7,66,28,6,11,26,11,6,11,5,-15.1,-28.4,27.7,t
11,8,63,29,8,14,30,13,6,11,5,-15.7,-27.9,26.7,t
12,8,61,32,8,14,34,13,6,11,5,-16.9,-25.9,26.2,t
11,5,62,27,6,13,43,14,6,12,5,-19.7,-24.6,26.4,t
12,8,60,30,7,15,42,17,6,12,5,-21.6,-22.4,26.5,t
12,9,48,30,7,13,39,16,6,12,6,-22.6,-21.5,25.9,t
11,8,54,33,8,15,37,15,7,12,6,-23.3,-20.8,26.3,t
10,12,50,35,8,14,41,14,7,12,6,-23.5,-19.5,26.2,t
8,12,56,32,7,13,45,12,7,13,6,-24,-18.8,26.1,t
10,14,56,27,5,11,39,12,7,13,6,-24.8,-18.5,26.3,t
10,13,64,22,5,12,38,13,7,13,6,-25,-17.6,26.4,t
8,13,67,22,6,14,34,12,7,13,7,-25.3,-16.8,26.7,t
7,11,72,19,4,13,29,11,7,13,7,-26.2,-17.1,27.2,t
7,14,83,17,6,19,36,11,7,13,7,-27,-14.6,27.9,t
7,14,73,15,8,22,40,14,7,13,7,-27.4,-14.5,28,t
8,13,71,17,8,23,39,15,7,13,7,-27.6,-11.7,27,t
9,17,63,18,9,25,44,16,7,13,7,-29.1,-13.8,27.8,t
9,16,70,19,10,25,43,14,7,13,7,-30.7,-12.1,31.1,t
8,17,63,18,9,24,41,15,7,13,7,-32.8,-11.5,33.2,t
8,18,55,18,9,27,36,14,7,13,7,-33.6,-11.2,32.8,t
9,19,57,23,10,28,37,12,7,13,7,-34.8,-12.5,32.1,t
8,15,48,21,8,23,31,10,7,13,6,-36.7,-11.5,29.6,t
12,22,44,20,5,22,30,9,7,13,6,-34.7,-14.3,27.8,t
11,18,49,21,5,20,24,8,7,13,6,-30.3,-15.8,23.2,t
12,15,52,21,5,21,16,12,7,13,6,-28.9,-17.9,22.5,t
11,16,47,21,4,20,16,13,7,13,6,-28.8,-16.8,21.9,t
11,19,53,19,4,20,18,12,7,13,5,-26.6,-16.6,21.3,t
10,23,54,19,5,16,17,12,7,13,5,-27.7,-18.5,21.2,t
9,21,55,13,6,14,18,13,6,13,5,-26.7,-19.1,22.3,t
10,23,58,18,5,16,20,13,6,13,5,-26.3,-22.1,21.5,t
7,19,66,19,6,14,15,17,6,13,5,-23.9,-22.8,21.2,t
9,20,60,19,6,16,20,19,6,12,4,-21.5,-23,21.4,t
7,22,54,19,5,12,26,21,6,12,4,-18.1,-23.8,20.2,t
8,32,63,20,6,12,33,21,6,12,4,-17.5,-23.5,20.3,t
9,33,65,21,6,13,34,21,6,12,4,-17.7,-25.1,20.2,t
12,36,63,24,6,12,34,22,6,12,4,-17,-25.8,19.4,t
12,41,53,23,5,11,31,22,6,12,4,-19.8,-29,21.1,t
12,41,47,20,5,9,29,22,6,11,4,-20.6,-28.4,20.7,t
12,41,44,19,6,8,28,17,6,11,4,-21.3,-31.2,22,t
8,41,51,18,6,6,22,15,6,11,4,-21.8,-30.2,22.4,t
9,39,54,19,6,5,19,8,6,11,4,-20.4,-30.3,21.9,t
11,28,42,17,7,5,8,7,6,12,4,-18.7,-27,21.1,t
11,24,30,16,8,5,6,11,6,12,4,-18.4,-28.8,21.3,t
9,16,29,13,8,4,9,9,6,12,4,-18.9,-24.7,22,t
10,10,30,15,7,6,9,11,6,12,4,-18.3,-24.1,22.1,t
11,9,31,13,7,7,8,9,7,12,5,-21.9,-18.9,23.7,t
10,7,28,12,6,6,8,9,7,12,5,-23.5,-20.3,24.2,t
15,7,23,11,5,6,8,9,7,12,5,-23.7,-18.2,24.4,t
14,6,24,12,6,7,6,11,7,12,5,-24.5,-14.1,28,t
10,5,23,12,5,7,7,10,7,12,5,-21.1,-12.6,26.9,t
10,5,20,11,5,7,11,7,7,12,5,-22.4,-12.2,30.9,t
10,5,16,11,6,7,7,7,7,11,5,-18.9,-14.8,32.8,t
8,5,18,7,6,7,9,6,7,11,5,-19.1,-10.5,35.2,t
7,5,18,9,6,5,8,7,7,10,5,-14.3,-19.4,38.1,t
7,5,18,9,6,5,8,7,7,10,5,-12.3,-15,39.1,t
3,5,14,8,6,6,10,6,7,10,5,-8.93,-19.9,39.8,t
3,8,12,5,5,6,11,4,7,9,5,-6.31,-25,39.1,t
3,8,12,5,5,6,12,5,7,9,5,-4.8,-21.7,42.1,t
4,11,14,6,3,5,9,4,7,9,5,-4.04,-23.3,42.2,t
4,15,16,6,2,5,9,4,7,8,5,-2.29,-22.9,41,t
4,17,13,6,2,4,8,3,7,8,5,-1.23,-24,39.4,t
4,18,16,7,2,5,8,2,7,8,5,-0.938,-18.9,39.8,t
3,20,20,7,2,5,8,1,7,8,5,0.371,-21.2,38,t
3,24,23,9,2,5,6,1,7,8,5,0.156,-17.6,38,t
3,21,21,9,3,4,5,1,7,8,5,2.21,-20.7,38.4,t
3,21,21,10,3,4,5,1,7,8,5,2.64,-22.1,41.1,t
3,19,19,10,3,3,6,2,7,8,5,0.977,-21,39.2,t
2,16,19,9,3,3,6,2,7,8,5,4.22,-20,37.7,t
2,15,19,11,2,3,6,2,7,8,5,1.91,-18.9,38,t
3,18,16,8,2,3,6,3,7,8,5,1.17,-17.9,38.4,t
3,19,13,8,2,2,6,3,7,8,5,0.605,-18.9,39.4,t
3,15,10,7,2,2,6,3,7,8,5,0.137,-18.7,39.4,t
4,22,14,7,2,2,5,4,7,8,5,0.664,-18.2,38.9,t
3,22,14,7,1,2,5,3,7,8,5,0.781,-18.3,38.4,t
3,22,14,8,1,2,4,3,7,8,5,0.41,-18.4,38.2,t
3,21,14,8,1,1,3,2,7,8,5,0.43,-17.7,38.3,t
3,21,15,7,1,1,3,2,7,8,5,0.293,-17.9,38.3,t
3,15,15,8,1,1,3,1,7,9,5,-0.0195,-17.9,38.5,t
0,0,0,0,0,0,0,0,0,0,0,0,0,0,SPACE
3,3,3,3,3,3,3,3,7,9,5,-2.81,-22.1,36.6,t
3,3,3,3,3,3,3,3,7,9,5,-2.11,-21.8,35.7,t
3,3,3,3,3,3,3,3,7,9,5,-0.723,-23.2,35.2,t
3,3,3,3,3,3,3,3,7,9,5,-1.74,-25.3,35.5,t
6,12,44,17,6,9,13,5,7,9,5,-1.07,-24.4,34.5,t
5,12,50,21,6,7,14,6,7,9,5,0.137,-25.6,34,t
5,11,50,25,7,7,13,7,7,9,5,-1.52,-27,33.1,t
5,12,44,23,7,8,17,7,7,9,5,-2.15,-27,33.5,t
5,9,44,20,6,8,21,8,6,9,5,-5,-29.7,32,t
6,9,39,19,5,9,27,15,6,9,5,-7.64,-33.8,33.7,t
8,8,45,21,6,13,38,15,6,10,5,-11.7,-30.6,33.3,t
12,11,50,24,5,15,38,16,6,10,5,-13.5,-29.1,32.3,t
15,11,44,29,6,18,38,25,6,11,6,-14.7,-29.2,30.3,t
15,11,39,25,6,21,41,30,6,11,6,-16.4,-27.8,27.9,t
15,10,35,20,4,22,46,31,6,11,6,-17.7,-25.3,27.3,t
16,8,36,23,5,20,40,33,6,12,6,-20.5,-23.3,26.2,t
16,9,41,26,5,20,39,33,6,12,6,-22.5,-20.6,24.5,t
18,10,43,25,7,25,33,32,7,13,6,-23.9,-20.2,24.4,t
18,11,48,27,7,22,23,36,7,13,7,-25.1,-16.9,24.3,t
15,8,51,26,7,22,26,38,7,13,7,-26.4,-15.8,24.2,t
14,10,48,23,7,20,37,29,7,13,7,-27.1,-14.6,23.7,t
15,12,43,26,10,21,40,27,7,13,7,-28.3,-14.4,24,t
15,12,45,32,10,20,36,26,7,13,7,-28.6,-13.7,25.1,t
14,16,52,32,12,20,36,30,7,13,7,-29.2,-11.9,26.1,t
14,14,44,30,12,21,38,31,7,13,7,-27.5,-11.5,26.1,t
14,15,52,34,11,14,43,28,7,13,7,-29.6,-11.5,27.3,t
13,14,46,30,11,13,45,26,7,13,7,-29.8,-13.4,28.7,t
12,17,45,28,10,11,39,24,7,13,7,-33.2,-11.3,30.5,t
10,16,44,26,9,9,29,23,7,13,7,-35.2,-10.1,30.7,t
11,17,46,23,6,8,26,23,7,13,7,-35.5,-12.1,29.1,t
11,17,46,16,6,8,32,23,7,13,7,-36.3,-11.9,27.2,t
14,21,51,23,5,9,34,19,7,14,7,-34.1,-14,24.7,t
13,23,55,27,5,7,37,21,7,13,7,-32.1,-14.3,23.1,t
10,24,54,22,4,8,34,20,7,13,6,-29,-17.2,22,t
13,39,51,22,5,8,32,21,7,13,6,-28.5,-16.6,20.7,t
13,39,51,23,7,12,33,23,7,13,6,-26.9,-17.9,21.3,t
13,37,60,21,8,12,35,24,6,13,6,-26.4,-20.4,21.7,t
11,34,63,22,10,12,38,20,6,13,5,-24.5,-21.5,21.4,t
10,36,64,30,10,12,33,18,6,12,5,-23.2,-25.3,21.6,t
7,32,58,25,10,13,32,17,6,12,5,-21.6,-24.5,20.3,t
10,36,61,22,10,13,25,19,6,12,5,-20.4,-25.9,21.2,t
11,34,53,26,11,13,29,21,6,12,5,-19.2,-27.2,21.2,t
11,27,54,33,11,13,30,23,6,11,5,-16.4,-29.1,21.3,t
14,25,59,33,9,11,38,35,6,11,5,-15.9,-29.3,21.1,t
16,28,60,34,10,9,37,41,6,11,5,-13.5,-32.1,18.8,t
18,27,57,32,9,7,31,45,5,11,4,-12.2,-34,17.4,t
21,26,54,24,10,8,32,53,5,11,4,-12.8,-34.3,17.3,t
21,25,49,21,10,8,32,55,5,11,4,-14.3,-36,18.6,t
21,20,51,24,9,7,38,53,5,11,4,-14.5,-34.6,18.5,t
22,20,53,22,9,6,35,51,5,11,4,-14.3,-35.1,19.1,t
22,13,55,18,9,5,34,54,5,11,4,-14,-33.7,19,t
22,15,53,18,8,5,30,41,6,11,4,-14.1,-33.1,19.8,t
20,13,47,17,6,6,27,34,6,11,5,-15.5,-33.2,19.8,t
20,18,47,18,5,6,25,30,6,11,5,-17.1,-31.9,20.2,t
20,17,49,19,6,5,22,25,6,11,5,-17.6,-31.7,21.3,t
19,17,51,18,6,4,23,23,6,11,5,-17,-30.3,21.6,t
19,20,45,17,6,4,17,19,6,11,5,-18,-28.5,22.2,t
16,20,37,14,6,4,14,17,6,11,5,-19,-25.6,23.8,t
14,19,28,10,5,3,12,11,6,12,5,-19.1,-22.7,25.2,t
11,17,21,10,5,2,9,9,6,12,5,-18.8,-22,25.5,t
12,16,17,10,4,2,7,8,7,12,5,-18.2,-20.4,27.4,t
9,10,18,9,4,2,7,8,7,11,5,-18.4,-17.4,28.3,t
7,9,13,8,2,1,6,5,7,11,6,-16.8,-18.8,29.6,t
7,9,10,6,2,2,5,5,7,11,6,-17.5,-17.1,32.1,t
6,12,9,3,1,2,4,4,7,11,6,-16.5,-17.9,33.1,t
6,13,11,4,2,3,3,3,7,10,6,-13.5,-21.3,34.1,t
4,14,12,4,2,3,2,2,7,10,6,-11.3,-19.7,35.4,t
3,16,10,6,2,3,1,2,7,9,6,-7.21,-20.4,37.6,t
3,18,12,9,2,3,1,2,7,9,6,-5.88,-21.9,39.5,t
3,17,15,9,3,3,1,1,7,9,6,-4.67,-24.2,40.1,t
2,18,14,10,3,3,1,1,7,8,6,-2.52,-21,40.4,t
2,20,19,11,3,2,1,1,7,8,5,-1.89,-22.6,40.3,t
2,19,19,10,3,2,1,1,7,8,5,-0.352,-23,39.5,t
2,17,19,10,2,1,1,1,7,8,5,0.82,-22.5,40.3,t
3,17,20,10,3,1,1,1,7,8,5,1.88,-21.2,37.4,t
3,16,20,9,2,1,1,1,7,8,5,2.13,-21,37.1,t
2,15,17,5,2,0,1,1,7,8,5,1.5,-21.4,37.7,t
2,16,14,5,2,0,1,1,7,8,5,0.977,-20.8,37.6,t
2,14,15,4,1,0,1,1,7,9,5,-0.43,-19.4,38.3,t
2,14,11,5,2,1,1,1,7,9,5,-0.801,-19.9,38.6,t
2,12,12,4,2,1,1,1,7,9,5,-0.82,-19.2,37.9,t
2,12,12,7,2,1,1,1,7,9,5,-0.0586,-20.2,37.2,t
1,11,11,6,2,1,1,1,7,9,5,0.0977,-20,36.9,t
2,10,11,8,2,1,1,1,7,9,5,-0.703,-20.4,37.3,t
2,11,14,10,2,1,1,1,7,9,5,-0.586,-19.4,37.6,t
2,12,12,10,1,1,1,1,7,9,5,-0.918,-19.9,37.7,t
2,13,11,9,2,2,1,1,7,9,5,-0.898,-19.3,37.6,t
3,13,11,8,1,1,1,1,7,9,5,-0.859,-19,37.9,t
2,9,14,8,1,1,1,1,7,9,5,-0.957,-19.6,37.5,t
2,8,11,6,1,1,1,1,7,9,5,-0.938,-19.3,37.5,t
3,8,10,6,1,1,1,1,7,9,5,-1.13,-19.7,37.7,t
3,7,10,5,1,1,1,1,7,9,5,-1.07,-19.5,37.7,t
3,8,9,5,2,2,1,1,7,9,5,-0.762,-19.5,37.5,t
2,10,10,4,2,2,1,1,7,9,5,-0.625,-19.8,37.3,t
3,9,10,4,1,1,1,1,7,9,5,-0.742,-19.8,37.5,t
2,8,8,4,1,1,1,1,7,9,5,-0.898,-19.8,37.2,t
2,8,9,5,2,1,1,1,7,9,5,-0.898,-19.6,37.4,t
2,8,11,4,2,1,1,1,7,9,5,-0.996,-19.6,37.5,t
2,8,11,4,1,1,1,1,7,9,5,-0.84,-19.9,37.4,t
1,8,12,4,2,1,1,1,7,9,5,-1.04,-20.2,37.2,t
0,0,0,0,0,0,0,0,0,0,0,0,0,0,SPACE
3,3,3,3,3,3,3,3,7,9,5,-0.762,-23.1,35.7,t
3,3,3,3,3,3,3,3,7,9,5,-1.17,-22.7,35.3,t
3,3,3,3,3,3,3,3,7,9,5,-0.605,-23.4,35.4,t
3,3,3,3,3,3,3,3,7,9,5,-0.84,-22.7,35.4,t
3,23,28,12,1,2,5,3,7,9,5,-1.23,-23.2,34.7,t
5,22,24,11,1,2,4,4,7,9,5,-0.43,-23.4,34.9,t
4,22,22,16,1,2,5,3,7,9,5,-0.684,-23,35.3,t
4,20,23,15,1,2,5,3,7,9,5,-0.859,-23,35.5,t
5,15,23,22,2,2,4,3,7,9,5,-1.41,-22.7,36.1,t
5,14,19,26,2,2,4,3,7,9,5,-0.957,-22.6,37.9,t
5,10,21,24,5,2,4,3,7,9,5,0.488,-23.2,36,t
5,10,19,25,6,3,4,3,7,8,5,1.39,-29.2,32.2,t
4,9,19,28,6,3,6,3,6,9,5,2.64,-31.5,30.3,t
3,8,20,29,6,4,7,3,6,9,6,-7.66,-30.1,32.6,t
4,6,28,34,7,5,7,5,6,10,6,-11.1,-30,31.9,t
4,7,27,33,9,7,11,5,6,10,6,-13.3,-29.7,30.5,t
4,6,23,28,9,7,14,5,6,11,6,-17.6,-28,28.9,t
5,6,26,25,9,9,20,7,6,11,6,-17.2,-25.2,30,t
7,6,32,25,6,8,22,12,6,11,6,-19.5,-25.7,29.1,t
7,7,38,30,6,10,22,23,6,12,6,-18.9,-23.8,28.3,t
9,8,45,30,6,11,23,24,6,12,7,-22.1,-26,27.9,t
11,9,45,30,7,11,24,27,7,12,7,-24.2,-22.5,26.9,t
11,11,39,23,6,10,27,30,7,12,7,-24.8,-17.8,26.5,t
13,11,37,23,6,12,30,34,7,13,7,-24.2,-15.8,26,t
13,11,41,23,5,12,30,34,7,13,7,-23.6,-14.1,24.9,t
11,10,43,21,6,11,24,32,7,13,8,-23.1,-14.4,25.1,t
11,11,45,25,7,15,23,28,7,13,8,-24.8,-13.4,24.9,t
13,12,49,19,8,16,30,21,7,13,8,-27,-12.3,25.9,t
12,10,42,17,9,18,28,24,7,13,8,-26.4,-9.45,27.3,t
11,10,52,17,7,19,31,23,7,13,8,-29.9,-13.7,27.6,t
11,10,52,14,7,19,27,26,7,13,8,-30.3,-12.6,28.9,t
9,10,54,16,6,15,21,29,7,13,8,-29.3,-11.1,29.8,t
9,11,57,13,7,15,25,35,7,13,8,-30,-11,30.3,t
12,12,50,15,7,16,30,39,7,13,8,-30.9,-10.6,31.2,t
12,11,47,19,6,11,35,38,7,13,8,-35.6,-9.73,30.6,t
9,13,45,20,5,8,30,34,7,13,7,-34,-12.2,25.3,t
11,13,59,19,7,7,33,32,7,13,7,-33.4,-15.5,23.1,t
15,17,52,21,8,7,30,34,7,13,7,-31.3,-14.7,22.1,t
17,14,56,22,8,8,31,37,7,13,6,-28.4,-18.2,20.3,t
18,17,55,23,9,8,33,32,6,13,6,-27.5,-19.2,19.8,t
18,16,62,31,11,7,28,28,6,13,6,-24.5,-20.5,20.5,t
18,16,63,32,12,8,24,23,6,13,6,-24.7,-23.3,19.9,t
17,16,71,29,13,8,19,23,6,13,6,-24.6,-23.3,20.1,t
21,13,69,33,13,8,14,25,6,12,5,-24.5,-26.8,20.1,t
19,16,61,35,13,6,12,25,6,12,5,-22.4,-26.1,20.3,t
16,12,58,31,12,5,13,21,6,12,5,-19,-29.4,19.8,t
15,14,56,34,11,4,15,11,6,11,5,-17.6,-27,19.3,t
14,12,58,33,11,5,18,11,5,11,5,-12.4,-30.2,18.1,t
15,12,45,27,10,5,19,10,5,11,5,-11.1,-30.7,16.5,t
18,18,48,25,9,4,20,11,5,11,5,-11.9,-35.1,16.2,t
19,19,42,21,8,7,28,12,5,11,5,-14.8,-36.1,17.2,t
17,23,42,22,8,7,29,13,5,11,5,-16.3,-36.6,18.6,t
18,19,41,24,7,8,32,11,5,11,5,-16,-36.7,18.4,t
17,20,46,27,7,8,37,11,5,11,5,-15.3,-35.2,17.9,t
15,22,53,23,8,9,36,13,5,11,5,-14.8,-35.1,17.2,t
17,24,60,20,8,9,43,18,5,11,5,-14.9,-34.6,17.1,t
17,23,62,20,8,10,43,19,5,11,5,-14.7,-33.7,17.1,t
13,18,59,19,7,9,42,22,5,11,5,-14.9,-32.3,17.2,t
19,21,62,20,8,8,42,27,5,11,5,-15.7,-31.9,18,t
17,22,62,18,10,8,42,27,5,11,5,-14.8,-31.1,17.8,t
17,23,59,14,9,8,38,27,6,11,5,-13.9,-29.3,19.2,t
17,21,52,12,9,9,33,27,6,11,5,-15.7,-25.4,20.7,t
16,18,40,12,8,7,28,25,6,11,5,-13.9,-26.5,19.7,t
14,13,35,12,7,6,16,17,6,11,5,-16.6,-28.2,20.7,t
13,13,32,10,6,6,15,15,6,11,5,-16.4,-25.2,22.8,t
11,12,31,9,7,6,12,12,6,11,5,-17.7,-26.7,24.6,t
3,7,23,8,6,4,4,5,6,11,5,-14.5,-23.3,25.5,t
4,1,17,3,3,5,3,3,6,10,5,-14.5,-26.7,28.4,t
2,5,15,4,3,4,4,1,6,10,6,-11.5,-26.9,30.4,t
2,5,17,4,2,3,3,1,6,10,6,-13,-29.5,33.4,t
2,6,17,4,3,4,3,1,6,9,6,-9.34,-29.7,33.5,t
1,6,12,4,4,5,3,2,6,9,6,-10.6,-30.4,36.2,t
2,6,11,5,6,5,3,2,6,9,6,-7.05,-31.5,36.5,t
2,6,12,5,7,5,3,1,6,9,6,-7.42,-29.9,35.4,t
2,7,11,7,6,5,3,1,6,9,6,-4.22,-28.1,33.5,t
1,7,11,9,5,5,2,1,6,9,6,-3.44,-26,33.5,t
1,5,11,9,6,4,1,1,6,9,6,-1.56,-27.3,33.1,t
1,4,9,8,6,4,3,1,7,9,6,-0.293,-30,33.9,t
2,3,9,7,6,3,2,1,7,9,6,0.801,-28.5,36.1,t
2,4,9,8,5,2,2,1,7,9,6,0.137,-26.2,34.8,t
2,4,8,8,5,2,2,0,7,9,6,-2.27,-25,34.9,t
3,4,7,8,4,2,2,1,7,9,6,-2.71,-25.6,34.3,t
3,4,6,6,4,2,2,1,7,9,6,-2.25,-25.8,33.5,t
3,4,4,3,4,1,2,1,7,9,6,-1.72,-26,32.9,t
3,3,4,3,3,1,2,1,7,9,6,-1.76,-26.1,33.2,t
3,3,5,4,3,1,1,0,7,9,6,-2.15,-25.7,33.1,t
3,3,6,4,3,1,1,0,7,9,6,-2.27,-25.5,33.8,t
3,3,7,3,4,1,1,0,7,9,6,-2.19,-25.1,34,t
3,3,7,3,3,1,1,0,7,9,6,-2.15,-25,34.1,t
1,3,7,4,3,1,1,0,7,9,6,-2.13,-25,33.8,t
2,2,6,4,3,1,0,0,7,9,6,-2.3,-25.1,33.8,t
2,2,6,4,3,0,0,0,7,9,6,-2.19,-25.3,33.7,t
2,2,6,4,3,1,0,0,7,9,6,-2.15,-25.4,33.7,t
1,3,4,3,4,1,1,0,7,9,6,-2.17,-25.3,33.8,t
1,2,5,3,3,1,0,1,7,9,6,-2.19,-24.8,33.8,t
2,6,4,3,3,1,0,1,7,9,6,-2.01,-24.8,34,t
1,6,4,3,3,1,0,1,7,9,6,-1.91,-25.1,33.7,t
1,6,4,3,2,1,1,1,7,9,6,-2.25,-25.2,33.8,t
1,6,4,2,2,1,1,1,7,9,6,-2.01,-24.9,33.8,t
1,6,4,2,2,1,1,1,7,9,6,-1.95,-24.9,34.1,t
0,0,0,0,0,0,0,0,0,0,0,0,0,0,SPACE
3,3,3,3,3,3,3,3,7,9,6,-1.48,-25.5,33.6,t
3,3,3,3,3,3,3,3,7,9,6,-1.17,-25.8,33.7,t
3,3,3,3,3,3,3,3,7,9,6,-0.742,-24.7,33.2,t
3,3,3,3,3,3,3,3,7,9,6,-1.41,-25.8,32.5,t
3,9,30,15,2,1,1,2,7,9,6,-1.68,-25.8,32.7,t
3,8,28,14,2,1,1,2,7,9,6,-1.41,-26.5,32.8,t
3,8,25,12,2,1,1,2,7,9,6,-1.29,-25.8,34.4,t
3,7,22,14,2,1,5,2,7,9,6,-1.11,-25.9,33.9,t
4,9,22,19,2,2,7,3,7,9,6,-1.74,-25.9,34,t
4,8,8,18,1,2,9,3,7,9,6,-3.26,-23.7,34.6,t
6,6,8,23,2,2,11,5,6,9,6,-1.09,-25.6,34.1,t
8,8,6,22,2,4,12,5,6,9,6,-2.42,-30.9,32.3,t
8,8,7,24,2,4,12,8,6,9,6,-0.176,-31,31.3,t
11,9,8,30,2,4,21,14,6,9,6,-2.6,-31,29,t
13,9,14,36,4,5,22,14,6,9,6,-6.45,-34.3,29.2,t
17,9,26,42,6,5,20,16,6,9,6,-7.09,-34.4,28.9,t
17,7,28,40,7,7,26,17,6,10,6,-10.9,-34.6,28.9,t
19,8,27,45,8,8,26,22,6,10,6,-16.7,-32.4,28.7,t
18,8,29,39,7,11,36,22,6,11,6,-18.5,-30.8,27.7,t
18,9,34,41,9,12,36,25,6,11,7,-20.2,-27.9,26.5,t
20,9,34,41,10,15,44,24,6,12,7,-20.3,-22.8,25.3,t
18,9,32,36,10,17,36,24,6,12,7,-19.7,-22.5,24.4,t
20,9,29,31,8,21,43,36,7,13,7,-20.5,-18.8,24.5,t
15,12,18,27,7,21,45,34,7,13,8,-22.5,-16.3,25.4,t
16,13,19,29,7,19,44,41,7,13,8,-23.9,-15.8,25.6,t
16,12,34,31,10,19,47,40,7,13,8,-26.3,-16.3,25.9,t
21,16,34,32,10,19,48,49,7,13,8,-25.9,-13,25.9,t
21,14,43,28,10,19,49,49,7,13,8,-24.9,-14,27.4,t
21,13,49,35,10,16,46,49,7,13,8,-27.2,-16.2,27.2,t
24,13,52,35,10,15,46,43,7,13,8,-29.2,-15.3,30.3,t
20,13,52,36,11,10,38,33,7,13,8,-30.2,-13,32.9,t
21,12,65,35,11,11,36,34,7,13,8,-31.4,-13.2,34.1,t
21,18,68,37,12,11,29,25,7,13,8,-33.8,-12.8,32.5,t
24,28,55,35,7,8,26,26,7,13,7,-33.2,-16.3,26.4,t
18,28,57,36,8,7,14,16,7,13,7,-31.9,-15.4,22.9,t
18,29,50,39,6,6,19,13,7,13,7,-26.5,-17.6,21.1,t
17,30,51,33,4,5,18,15,7,13,6,-25.2,-19.4,19.8,t
16,33,54,35,5,4,21,17,6,13,6,-23.1,-22.9,18.8,t
17,42,60,36,3,4,27,19,6,13,6,-25.6,-22.1,20,t
20,43,52,34,3,4,28,18,6,12,6,-24.8,-23.4,20.6,t
18,46,61,30,4,5,31,21,6,12,6,-24.8,-25.9,21.7,t
14,38,63,25,5,7,32,18,6,12,6,-20.5,-27,20.4,t
15,34,65,27,6,6,35,22,6,12,5,-20.2,-27.2,20.8,t
14,32,66,28,5,5,35,27,6,12,5,-17.9,-28.3,20.2,t
14,33,57,26,6,6,34,28,6,11,5,-16.2,-30,20.3,t
14,29,68,29,6,6,32,27,6,11,5,-11.4,-28.8,19.4,t
15,23,69,31,7,6,35,31,6,11,5,-10.4,-29.8,19.6,t
14,19,64,31,7,5,34,35,6,10,5,-11.2,-33.3,19.8,t
15,10,63,29,8,5,40,32,6,10,5,-12.2,-32.7,20.1,t
15,16,69,32,7,5,38,38,6,10,5,-13.7,-34.9,21.3,t
16,16,75,28,6,8,34,33,6,10,5,-14.8,-35.7,21.2,t
15,17,78,27,6,8,28,32,6,10,5,-14,-33.8,20.4,t
16,17,89,27,5,7,25,29,6,11,5,-14.1,-33.3,20.8,t
12,20,80,21,7,8,28,31,6,11,5,-14.8,-33.8,21.4,t
12,19,77,16,6,8,20,25,6,11,5,-15,-32,21.6,t
9,20,88,17,9,7,26,23,6,11,5,-14,-31.6,21.9,t
9,19,74,16,7,6,22,29,6,11,5,-13.3,-26.8,22.3,t
10,12,65,12,7,5,23,24,6,11,5,-13.2,-25.7,23.1,t
9,13,56,11,7,3,26,25,6,11,5,-13.1,-24,23.5,t
8,12,48,7,9,4,27,21,6,11,5,-15.7,-23.9,24.8,t
8,10,46,12,9,3,27,20,6,11,6,-12.8,-23.3,25.1,t
8,7,41,11,8,3,23,17,6,11,6,-14.1,-22.3,26.3,t
5,5,33,11,9,3,22,16,7,11,6,-13.2,-23.4,26.5,t
5,5,22,10,7,4,14,13,7,11,6,-12.3,-24.4,28.4,t
5,5,21,12,8,5,8,6,7,10,6,-14.8,-24.4,30.3,t
3,4,20,11,10,5,7,3,7,10,6,-11.3,-26.8,32,t
2,3,18,13,10,5,4,2,7,10,6,-12.5,-25.2,34.3,t
1,2,14,14,11,4,3,2,7,9,6,-8.91,-25.3,33.8,t
2,2,8,12,15,4,3,2,7,9,6,-8.93,-27.1,36.6,t
1,2,11,13,16,4,2,2,6,9,6,-5.47,-29,36.5,t
2,2,15,12,15,5,2,2,6,9,6,-7.6,-29.4,37.9,t
2,5,15,12,15,4,3,2,6,8,6,-4.67,-26.1,37.2,t
2,5,15,9,13,4,3,1,6,8,6,-2.64,-28.5,35.6,t
3,5,16,9,12,4,3,1,6,8,6,-0.254,-27.5,34.3,t
3,6,16,7,12,3,3,1,6,8,6,2.6,-32.9,36.7,t
3,8,17,7,11,4,3,1,7,8,6,-3.18,-25,32.8,t
3,7,15,4,7,3,3,1,7,9,6,2.48,-27.9,33.6,t
3,8,9,4,6,3,3,1,7,9,6,0.82,-26.4,33.8,t
3,7,6,4,5,3,3,1,7,9,6,-1.35,-26.4,33.6,t
2,4,5,5,5,2,2,1,7,9,6,-2.11,-26.4,33.3,t
2,4,4,6,5,2,2,1,7,9,6,-1.8,-26.7,32.9,t
1,4,3,6,4,2,2,1,7,9,6,-1.6,-26.7,32.8,t
2,3,2,6,4,2,2,1,7,9,6,-1.66,-26.8,32.7,t
1,1,2,6,2,1,1,1,7,9,6,-1.76,-26.5,32.9,t
1,1,1,6,2,1,0,1,7,9,6,-1.8,-26.2,33.1,t
1,1,1,5,2,1,0,1,7,9,6,-1.91,-25.8,33.1,t
1,1,1,4,2,1,0,1,7,9,6,-1.95,-26,33.1,t
1,1,1,3,2,0,0,1,7,9,6,-1.78,-26.1,32.9,t
1,1,1,3,2,0,0,1,7,9,6,-2.05,-26.4,33.1,t
1,1,1,4,2,0,1,1,7,9,6,-2.13,-26.2,33.3,t
1,1,2,3,3,0,1,1,7,9,6,-2.11,-25.7,33.2,t
1,1,2,2,3,0,1,1,7,9,6,-2.05,-25.4,33.5,t
1,1,2,3,2,0,1,1,7,9,6,-1.84,-25.6,33.3,t
1,1,2,2,2,0,0,1,7,9,6,-1.97,-25.6,33.5,t
1,1,2,3,3,0,0,1,7,9,6,-1.95,-25.9,33.2,t
1,1,3,3,3,0,0,1,7,9,6,-1.95,-25.9,33.3,t
1,1,2,2,3,1,1,1,7,9,6,-2.05,-25.7,33.4,t
1,1,4,3,3,1,0,1,7,9,6,-2.03,-25.9,33.2,t
1,1,3,3,3,1,0,1,7,9,6,-1.93,-25.7,33.4,t
1,1,4,3,3,1,0,0,7,9,6,-1.95,-25.6,33.3,t
0,0,0,0,0,0,0,0,0,0,0,0,0,0,SPACE
3,3,3,3,3,3,3,3,7,9,6,-2.27,-22.2,36.1,t
3,3,3,3,3,3,3,3,7,9,6,-1.58,-25.7,34.7,t
3,3,3,3,3,3,3,3,7,9,6,-0.859,-23,34.7,t
3,3,3,3,3,3,3,3,7,9,6,-1.89,-23.7,35,t
5,10,26,10,3,2,3,4,7,9,6,-1.5,-24,34.5,t
4,10,23,14,3,1,2,3,7,9,6,-1.45,-23.9,34.5,t
4,11,23,14,3,1,2,3,7,9,6,-0.762,-23.5,34.8,t
3,10,20,13,3,1,2,3,7,9,6,-1.04,-23.8,35.1,t
3,11,9,13,2,1,1,3,7,9,6,-1.41,-23.4,35.4,t
2,12,10,13,2,1,1,1,7,9,6,-1.35,-23,35.3,t
2,14,14,13,2,1,1,1,7,9,6,-1.11,-22.9,35.7,t
2,14,14,14,2,1,1,1,7,9,6,-0.977,-22.6,35.5,t
3,12,14,14,2,1,2,2,7,9,6,-0.84,-21.5,35.9,t
3,12,15,13,1,2,2,4,7,9,6,-1.33,-22.9,36,t
3,11,22,11,1,3,8,5,7,9,6,-2.91,-23.9,36.6,t
5,10,24,12,2,3,11,5,7,9,6,-4.32,-30.2,36.3,t
8,12,26,22,2,3,13,6,7,9,6,-7.32,-28.9,37.5,t
8,10,25,22,2,3,14,9,7,9,6,-8.11,-32.7,38.7,t
9,8,23,22,2,5,17,10,7,9,6,-2.21,-23.2,35.9,t
11,10,24,23,2,6,17,11,7,9,6,-3.44,-29.9,31.3,t
12,12,33,25,3,6,23,16,6,10,6,-2.62,-30.1,28.6,t
14,13,37,25,3,10,28,17,6,11,6,-13.6,-34.1,24.2,t
15,13,41,26,3,10,28,20,6,11,7,-17.8,-33.8,21.9,t
16,19,41,24,3,10,36,22,6,12,7,-23.9,-28.5,21.6,t
16,17,45,19,3,13,43,24,6,12,8,-20.5,-22,25.5,t
17,17,54,24,6,16,46,25,7,13,8,-21.7,-14.1,27.7,t
20,18,59,24,6,19,46,27,7,13,8,-18.8,-17.4,29.4,t
19,17,62,22,5,22,54,27,7,13,8,-20.7,-15.5,28.2,t
20,16,63,22,7,23,52,23,7,13,9,-24,-16.7,27.3,t
18,15,69,19,8,18,46,21,7,13,9,-25.8,-14.7,27,t
18,15,64,24,10,22,46,20,7,13,9,-25.1,-12.2,28.9,t
16,12,63,24,10,23,40,24,7,13,9,-27.9,-14.1,28.6,t
13,11,67,19,10,21,32,22,7,13,9,-28.8,-14.6,29.4,t
14,10,58,15,7,18,32,19,7,13,9,-29.7,-12.5,30.6,t
12,16,64,18,7,14,31,15,7,13,9,-30.9,-13,29.8,t
10,17,63,18,7,11,27,15,7,13,8,-31.6,-13.4,29.2,t
9,21,64,17,6,12,28,16,7,13,8,-31.3,-14.9,27.2,t
9,21,53,21,5,14,32,15,7,13,8,-31.2,-14,26.8,t
9,23,50,22,5,12,29,15,7,13,8,-32.3,-13.8,25.7,t
9,22,57,27,7,14,26,11,7,13,8,-32.2,-14.1,25.9,t
9,27,57,33,7,13,26,13,7,13,8,-32.1,-13.9,24,t
8,31,64,31,7,14,23,12,7,13,7,-29.8,-16,22.5,t
13,34,57,33,9,14,23,14,7,13,7,-30.3,-17.6,21.8,t
13,34,55,36,8,13,27,13,7,13,7,-28.1,-19.1,20.2,t
13,32,52,36,8,11,28,16,6,13,7,-27.8,-21.3,20.8,t
15,33,52,33,7,11,27,16,6,13,6,-25.8,-21.1,21.4,t
19,32,46,29,6,8,28,16,6,12,6,-24.7,-25.1,20.2,t
19,31,41,29,4,4,26,17,6,12,6,-23.7,-27.7,21.2,t
20,36,41,22,4,6,27,21,6,12,6,-20.1,-27.7,19.9,t
20,37,40,22,4,7,38,23,6,11,6,-15.8,-28.1,19.7,t
18,39,39,22,6,11,45,22,6,11,6,-13.6,-29.5,19,t
21,40,38,19,6,12,37,24,6,11,6,-12.8,-30,18.5,t
22,42,40,18,9,13,30,21,6,11,6,-13,-31.3,18.6,t
21,42,48,16,10,12,29,22,6,11,6,-14.1,-31.9,18.9,t
18,40,53,16,11,13,28,23,6,11,5,-14.6,-34.3,18.8,t
19,40,61,14,14,13,32,20,6,11,5,-15.6,-34.2,19.6,t
20,31,53,15,14,12,31,15,6,11,5,-15.7,-34.4,20,t
19,27,50,16,13,13,21,15,6,11,5,-16.9,-31.7,19.5,t
15,16,44,11,11,9,15,14,6,11,5,-16.5,-32,20,t
11,15,44,9,12,9,15,11,6,11,6,-17.4,-28.1,19.5,t
10,11,32,8,8,7,16,11,6,11,6,-18.5,-29.1,20.8,t
8,8,27,9,7,7,13,9,6,12,6,-18.2,-21.1,21.9,t
7,8,21,9,7,6,11,7,6,12,6,-20.1,-27.1,22.1,t
7,9,15,6,5,6,9,6,6,12,6,-20.7,-21.5,24.1,t
5,7,18,6,4,6,8,6,7,12,6,-18.4,-17.3,24,t
4,5,22,5,6,3,6,3,7,12,6,-18.9,-18.6,24.6,t
4,5,23,6,6,2,4,2,7,12,6,-19.5,-18.3,26.9,t
4,3,24,6,6,2,3,3,7,11,6,-19.5,-18.8,28.8,t
4,3,25,7,6,2,4,3,7,11,6,-19.8,-18.8,30.9,t
4,3,22,6,5,3,5,2,7,11,6,-16.5,-20.3,30.6,t
5,3,23,5,5,3,5,2,7,11,6,-15.1,-20.8,33.4,t
4,2,18,6,7,3,5,2,7,10,6,-11.7,-23,34.5,t
4,1,14,5,7,4,5,2,7,10,6,-10.4,-23,37.1,t
4,2,9,6,8,4,5,2,7,10,7,-9.94,-24.7,37.6,t
2,2,8,4,8,4,4,1,7,9,7,-4.9,-24.3,36.9,t
2,2,6,6,7,6,4,1,7,9,7,-7.62,-22.9,40.1,t
2,2,8,6,7,5,3,1,7,9,7,-2.79,-24.3,38.2,t
2,2,12,6,8,5,3,1,7,8,7,-2.87,-24.2,38.2,t
1,2,12,8,7,6,3,1,7,8,7,-0.469,-23.7,37.8,t
1,3,15,7,5,6,2,2,7,8,7,-1.84,-24.6,38,t
1,3,14,7,5,5,2,2,7,8,7,-1.56,-24.9,38.6,t
2,4,12,7,4,6,2,2,7,8,7,0.723,-23,39.7,t
2,3,12,8,4,4,2,2,7,8,7,-1.88,-24.6,40.2,t
2,4,13,8,4,3,1,2,7,8,7,0.801,-22.7,35.2,t
2,6,12,9,4,3,1,2,7,8,7,1.64,-22.4,35.4,t
3,8,9,9,4,2,1,2,7,8,7,0.586,-22.4,35.5,t
3,8,11,7,4,1,1,2,7,8,7,0.566,-21,36.8,t
3,8,10,9,4,1,1,1,7,9,7,-0.0195,-20.5,38,t
3,9,10,9,4,1,1,1,7,9,7,0.332,-21.7,37.6,t
2,8,12,9,3,1,1,1,7,9,7,0.254,-21.4,37.2,t
2,8,12,8,3,1,1,1,7,9,7,-0.195,-20.4,37.3,t
4,9,15,10,3,1,1,2,7,9,7,-1.39,-21.8,37.1,t
4,8,14,9,3,1,1,1,7,9,7,-0.996,-21.8,36.6,t
3,6,14,7,3,1,1,1,7,9,7,-1.15,-21.6,36.6,t
3,6,13,7,2,1,1,2,7,9,7,-0.898,-21.1,36.3,t
4,7,18,8,2,1,1,2,7,9,7,-0.449,-21,36.6,t
4,14,19,8,3,1,1,3,7,9,7,-1.31,-22.6,36,t
5,14,19,11,3,1,2,4,7,9,7,-2.03,-19.9,37.1,t
6,14,19,11,3,1,2,4,7,9,7,-1.54,-21.2,36.4,t
5,15,17,9,3,2,3,5,7,9,7,-2.19,-22,36.5,t
0,0,0,0,0,0,0,0,0,0,0,0,0,0,SPACE
3,3,3,3,3,3,3,3,7,9,7,-0.313,-24.1,34,t
3,3,3,3,3,3,3,3,7,9,7,0.859,-24.5,33.9,t
3,3,3,3,3,3,3,3,7,9,7,-0.0195,-23.7,33.8,t
3,3,3,3,3,3,3,3,7,9,7,-1.19,-26.2,34,t
11,14,40,23,5,6,27,17,7,9,7,-1.29,-26.4,33.7,t
12,14,34,22,5,7,23,15,6,9,7,-0.703,-27.6,33.8,t
11,13,40,27,6,6,31,19,6,9,7,0.176,-26.2,33.8,t
15,12,36,33,7,5,37,17,6,9,7,1.84,-30.8,28.8,t
15,11,41,31,7,7,37,18,6,9,7,3.3,-29.9,29.3,t
17,11,47,33,8,12,46,21,6,9,7,-3.38,-34.4,28.2,t
19,10,52,41,8,16,50,23,6,9,7,-4.3,-34.8,26.9,t
19,9,57,35,9,24,59,26,6,9,7,-9.84,-32.3,25.1,t
21,11,54,32,10,32,59,29,6,10,7,-9.69,-30.3,25.1,t
20,11,59,34,10,38,60,28,6,10,8,-8.96,-29.4,25.7,t
19,12,54,31,12,39,50,26,6,10,8,-7.64,-30.1,26.3,t
19,13,58,22,12,48,48,31,6,10,8,-8.4,-31.7,26,t
23,12,57,25,11,49,55,34,6,10,8,-9.55,-31.2,26.1,t
22,13,52,23,13,54,55,32,6,10,9,-6.66,-30.1,23.2,t
21,12,41,16,14,57,51,36,6,9,9,6,-23.3,39.8,t
21,15,45,28,15,52,42,35,6,9,9,-10.5,-35.4,28.4,t
19,15,46,29,14,47,40,27,6,10,9,-9.2,-30.9,24.6,t
18,14,47,29,15,43,41,34,6,10,9,-8.28,-30.1,25.4,t
20,15,54,28,13,49,41,31,6,10,9,-6.89,-31.6,24,t
16,14,57,27,12,44,34,26,6,10,9,-6.78,-31.5,24.2,t
11,14,50,25,13,44,28,25,6,10,9,-7.5,-32.6,25.1,t
14,13,55,29,12,35,20,26,6,10,9,-8.4,-32.8,26.2,t
16,12,58,31,13,30,20,22,6,10,9,-12.5,-32.4,27.8,t
16,11,50,21,12,30,18,20,6,10,9,-12.4,-33.8,29.1,t
12,10,45,20,11,26,12,18,6,10,9,-13.3,-32.1,29.2,t
12,8,39,19,10,24,11,12,6,10,9,-16.1,-31.7,29.5,t
11,7,27,19,11,24,12,13,6,11,9,-19,-30.8,30.1,t
11,6,32,21,10,22,14,14,6,11,9,-21.1,-29.2,30,t
11,8,39,20,9,21,13,11,6,12,9,-20.2,-26.1,26.2,t
7,9,31,16,7,21,13,13,6,12,9,-17.7,-23.4,26.4,t
4,9,42,17,6,21,14,12,7,12,9,-19.3,-19.4,27.6,t
7,8,39,17,7,18,15,11,7,12,9,-21.9,-16.5,30,t
8,13,44,17,5,18,10,10,7,13,9,-28.2,-14.5,28.8,t
10,14,49,17,5,18,12,8,7,13,9,-29.3,-15.3,30.6,t
11,19,48,17,5,13,13,10,7,13,8,-33.1,-15.8,26.9,t
11,21,43,17,6,11,10,9,7,13,8,-33.1,-19.4,25.6,t
12,22,49,18,6,10,9,10,7,13,8,-33.7,-17.4,23.2,t
11,22,56,20,6,9,8,9,7,13,8,-29.1,-19.9,22.3,t
11,22,47,16,5,7,8,9,6,13,7,-27.8,-18.5,21,t
8,22,55,15,5,8,8,9,6,13,7,-24.6,-21.6,20.5,t
9,22,52,15,5,9,10,9,6,13,7,-19.4,-23,19.7,t
8,26,56,18,4,7,11,9,6,12,7,-17.4,-24.1,19.4,t
9,29,58,18,4,9,13,8,6,12,7,-14,-25.6,19.6,t
8,34,54,17,4,10,12,9,6,12,6,-13.4,-26.2,19.5,t
8,32,41,19,5,12,12,10,6,11,6,-10.8,-27.6,19.8,t
10,33,46,19,5,13,18,11,6,11,6,-11.5,-31.1,19.8,t
10,32,42,18,6,13,18,10,6,11,6,-13.5,-32.8,20.3,t
13,37,39,19,9,14,20,10,6,11,6,-13.8,-34.2,20.4,t
13,35,37,18,9,13,19,11,6,10,6,-14.2,-34.7,20.1,t
13,30,28,14,11,13,17,10,6,10,6,-14,-34.8,20,t
13,23,29,15,12,10,18,11,6,10,6,-13.2,-34.5,19.9,t
13,17,29,14,13,9,18,11,6,10,6,-12.9,-33.8,19.8,t
12,19,31,10,13,6,20,8,6,10,6,-12.3,-33,20.2,t
11,21,26,10,13,5,14,6,6,10,6,-12.8,-33.5,20.4,t
12,23,25,14,13,5,17,8,6,10,6,-12.8,-33.5,20.4,t
11,26,22,13,12,5,14,8,6,10,6,-13.1,-33.4,20.9,t
12,23,21,15,11,4,15,7,6,10,6,-12.3,-33,20.8,t
11,23,25,15,11,6,15,7,6,10,6,-12.7,-32.9,20.9,t
9,21,22,13,9,6,11,7,6,11,6,-13.1,-32.5,20.8,t
9,20,20,13,7,6,13,6,6,11,6,-13.9,-32,22.2,t
9,18,17,14,7,6,11,6,6,11,6,-13.3,-29.7,22,t
10,14,12,14,6,6,10,6,6,11,6,-13.7,-30.4,22,t
10,12,12,10,6,7,7,5,6,11,6,-13.9,-28.7,22.6,t
8,3,14,9,7,7,6,5,6,11,6,-14.9,-26.9,22.4,t
5,3,13,6,6,6,5,5,6,11,6,-16,-26.7,23.9,t
5,3,11,6,7,5,6,5,6,11,7,-16.1,-25.7,24.1,t
5,3,11,6,7,4,6,4,6,11,7,-15.6,-25.3,24.1,t
4,3,12,5,8,6,4,4,6,11,7,-15.8,-25.2,25.5,t
4,2,11,4,9,6,6,3,6,11,7,-15.7,-23.8,27.5,t
2,2,10,5,10,6,6,2,7,11,7,-15.5,-23,28.9,t
1,2,12,6,10,5,5,2,7,11,7,-15.8,-20.4,32.3,t
1,3,8,5,9,5,5,1,7,10,7,-13.2,-23.8,31.1,t
1,2,9,6,10,5,5,1,7,10,7,-14.4,-19.7,34.5,t
1,2,8,7,8,5,4,1,7,10,7,-12.2,-23.7,34.3,t
1,2,9,6,8,7,3,0,7,9,7,-10,-24.6,36.5,t
1,2,9,9,7,5,3,1,7,9,7,-7.32,-28.2,36.3,t
1,10,13,9,7,5,2,0,7,9,7,-4.9,-26.2,38.8,t
2,10,24,8,6,5,2,1,7,8,7,-3.46,-22.9,38.1,t
2,15,22,7,6,5,2,1,7,8,7,-1.62,-27,38.4,t
2,15,22,9,6,4,2,1,7,8,7,-1.13,-28.4,37.3,t
2,16,21,8,5,4,3,2,7,8,7,-0.781,-22.3,34.6,t
3,17,23,8,5,3,3,2,7,8,7,3.01,-22.7,35.7,t
3,19,25,11,4,2,3,2,7,8,7,2.66,-22.1,35.8,t
3,19,25,9,4,2,3,2,7,8,7,1.37,-22.3,36.3,t
3,13,20,10,4,2,3,2,7,8,7,0.195,-23,36,t
3,15,10,11,3,2,3,2,7,8,7,0.371,-23.9,35.4,t
2,11,11,11,2,1,2,2,7,8,7,0.469,-22.9,35.4,t
2,11,10,10,2,2,2,2,7,8,7,0.918,-23.8,35.4,t
2,12,11,10,2,2,2,2,7,8,7,0.684,-22,35.3,t
2,11,10,9,2,2,2,2,7,8,7,0.586,-22.7,35.6,t
2,11,7,5,2,2,1,1,7,9,7,0.352,-23,35.5,t
2,11,8,6,3,2,2,1,7,9,7,-0.117,-23.1,35.5,t
2,11,10,5,2,2,1,1,7,9,7,0.0977,-23.7,35.3,t
2,9,11,5,2,2,2,1,7,9,7,0.234,-23,35.3,t
2,9,12,6,2,2,2,1,7,9,7,0.352,-22.5,35.5,t
2,11,13,6,2,2,2,1,7,9,7,0.156,-22.4,35.6,t
0,0,0,0,0,0,0,0,0,0,0,0,0,0,SPACE
3,3,3,3,3,3,3,3,7,9,7,-1.39,-20.4,36.4,t
3,3,3,3,3,3,3,3,7,9,7,0.254,-21.3,36.7,t
3,3,3,3,3,3,3,3,7,9,7,-0.0781,-18.9,36.1,t
3,3,3,3,3,3,3,3,7,9,7,0.508,-22.2,36.8,t
9,9,44,39,4,3,5,2,7,9,7,-0.332,-24.9,35.1,t
10,12,51,41,4,3,5,4,7,9,7,-0.313,-24.9,33.9,t
9,10,48,39,7,3,5,5,7,9,7,-1.89,-26.6,33,t
10,11,47,40,8,3,8,5,6,9,7,-0.684,-28.1,31.5,t
9,9,44,36,9,4,17,8,6,9,7,-2.42,-30.2,29.7,t
8,10,50,24,9,4,17,9,6,9,7,-6.76,-35.5,24.2,t
9,10,54,25,12,6,23,11,6,9,7,-5.84,-41.1,26.2,t
12,11,58,30,11,6,28,12,6,9,7,-9.14,-34.7,27.7,t
13,11,62,25,11,8,32,12,6,10,7,-11.8,-37.7,26.5,t
14,10,59,22,13,12,34,18,6,10,7,-15.2,-34.6,25.3,t
16,11,63,25,10,13,35,18,6,11,7,-17,-32.5,24.3,t
14,11,59,21,10,18,35,19,6,11,8,-19.6,-30.9,23.2,t
13,10,57,22,8,17,34,17,6,12,8,-21.4,-25,23.5,t
14,12,63,25,10,18,38,19,6,13,8,-22.5,-23.8,22.6,t
13,17,60,26,9,20,37,17,6,13,9,-22.9,-19.9,23.1,t
11,16,57,29,9,21,36,18,6,13,9,-23.1,-18.9,22.8,t
14,16,43,32,9,23,36,22,7,13,9,-23.3,-16.4,23.2,t
12,14,39,30,9,22,33,17,7,13,9,-25.1,-16.1,24.5,t
12,13,32,24,11,20,36,16,7,13,9,-26.9,-15.1,24.6,t
12,15,41,25,11,19,34,16,7,13,10,-24.7,-12.2,27.2,t
13,16,36,33,15,24,29,14,7,13,9,-31,-11.9,27.3,t
13,15,34,32,14,25,28,14,7,13,9,-30.2,-14.8,28.9,t
14,13,35,30,14,26,24,14,7,13,9,-33.7,-12,30.2,t
15,17,44,21,14,24,22,12,7,13,9,-35.4,-9.47,29.7,t
11,20,48,20,14,22,17,9,7,14,9,-35.4,-11.3,24.5,t
10,20,54,19,11,20,18,7,7,14,9,-34.9,-15,22.2,t
11,24,55,19,12,21,15,10,7,14,8,-28.7,-18.5,19.1,t
11,23,46,18,10,17,15,8,6,13,8,-27.9,-20.3,18.5,t
12,23,45,13,6,16,23,12,6,13,8,-23.9,-23.3,17.6,t
13,31,36,11,7,13,21,11,6,13,7,-23.8,-26,18.7,t
13,30,30,10,7,14,26,12,6,12,7,-20.6,-26.7,17.7,t
11,30,28,13,6,15,27,13,6,12,7,-20.4,-29.3,17.2,t
11,35,26,13,6,13,33,13,5,12,7,-18.9,-31,17.7,t
10,37,19,13,6,15,41,14,5,11,7,-18.9,-31.2,17.3,t
8,37,25,13,5,14,39,12,5,11,7,-15.1,-34.5,16.7,t
9,38,25,12,5,15,41,16,5,11,7,-13.9,-32.1,16.2,t
8,38,26,8,5,15,32,14,5,10,6,-9.84,-34.5,15.8,t
5,29,29,9,4,15,35,14,5,10,6,-6.82,-34.7,14.5,t
7,27,28,8,3,14,32,15,5,10,6,-5.2,-34.9,14.3,t
8,28,21,6,4,14,31,15,5,9,6,-4.75,-38.8,13.7,t
8,21,23,6,5,14,27,15,5,9,6,-4.51,-38.9,13.9,t
8,19,21,7,5,14,22,14,5,9,6,-5.7,-41,15.2,t
7,16,17,7,5,15,22,13,5,9,6,-8.13,-38.2,10.6,t
6,15,19,8,5,13,20,9,5,9,6,-8.01,-38.4,10.4,t
5,15,20,9,8,13,20,8,5,9,6,-8.13,-37.6,10.3,t
7,16,27,12,8,15,17,8,5,9,6,-8.09,-36.9,10.3,t
4,15,29,11,9,14,20,7,5,10,6,-8.75,-36.7,9.84,t
4,10,31,10,9,12,20,7,5,10,6,-9.51,-36.6,10.5,t
5,9,32,9,9,13,18,9,5,10,6,-10.3,-36.3,10.5,t
7,13,36,9,8,10,15,10,5,10,6,-11.3,-35.7,10.8,t
8,12,35,10,9,12,16,12,5,10,6,-11.4,-34.9,10.5,t
11,12,33,9,8,13,15,12,5,10,6,-12.2,-33.2,10.9,t
11,12,32,8,6,11,14,12,5,10,6,-12,-32.2,10.8,t
11,10,28,4,6,9,11,11,5,11,6,-12.3,-31.6,11.7,t
11,9,28,5,5,8,7,9,5,11,6,-12.7,-30.2,11.7,t
10,9,26,5,7,9,6,8,5,11,6,-11.2,-27.5,12.4,t
10,9,21,5,6,9,7,5,5,11,7,-16.4,-27.3,14.7,t
8,5,16,3,7,11,7,3,6,11,7,-11,-25.9,14.7,t
7,4,18,4,7,10,7,2,6,11,7,-18.4,-25.3,19.1,t
4,3,19,5,8,7,7,2,6,11,7,-16.7,-25.2,20,t
5,2,19,5,9,7,6,2,6,11,7,-18.5,-24.3,22.3,t
4,2,16,6,11,8,7,3,6,11,7,-17.8,-25.2,24.6,t
4,2,17,6,10,9,7,3,6,11,7,-14.2,-23.1,25.4,t
4,2,17,7,9,9,8,3,6,11,7,-16.1,-22.8,27.8,t
3,3,16,8,8,9,8,3,7,10,7,-15.9,-21.2,30.4,t
3,5,17,8,7,7,7,3,7,10,7,-12.3,-24.8,31.1,t
3,6,14,7,7,7,6,3,7,10,7,-10.2,-23,31,t
3,6,11,9,6,7,6,2,7,9,7,-8.46,-22.8,32.1,t
3,6,12,10,5,7,5,2,7,9,7,-8.14,-22.3,31.9,t
3,7,11,11,4,5,5,2,7,9,7,-6.45,-21.8,32.5,t
3,8,12,13,4,4,4,2,7,9,7,-4.43,-23.5,32.9,t
4,8,11,14,4,3,2,1,7,9,7,-5.9,-22.2,30.7,t
4,9,11,15,3,2,2,2,7,9,7,-4.16,-21,29,t
4,10,10,15,4,2,3,3,7,9,7,-3.83,-22.4,30.3,t
5,13,14,15,3,1,2,3,7,9,7,-5.57,-19.8,29.8,t
5,15,16,14,3,1,2,3,7,9,7,-5.02,-18.6,31.2,t
4,15,16,15,2,1,2,3,7,9,7,-1.13,-17.7,32.5,t
3,15,13,14,1,1,2,3,7,9,7,-1.6,-18.9,32.3,t
3,14,11,11,1,1,2,3,7,9,7,-3.42,-19.2,31.6,t
3,14,11,10,1,1,2,3,7,9,7,-3.83,-20.1,31,t
3,12,12,9,1,1,1,2,7,9,7,-2.81,-19.9,30.8,t
2,9,13,8,0,0,1,1,7,9,7,-2.77,-19.2,31,t
1,7,8,10,1,0,1,1,7,9,7,-2.99,-19.4,31.4,t
2,5,6,8,1,0,1,1,7,9,7,-3.24,-19.2,31.6,t
2,6,7,7,1,0,1,1,7,9,7,-3.48,-19.5,31.6,t
2,6,9,6,1,1,1,1,7,9,7,-3.2,-19.2,31.3,t
2,7,9,6,1,0,1,1,7,9,7,-3.13,-18.6,30.9,t
3,6,7,5,1,0,1,1,7,9,7,-2.56,-17.4,29.3,t
3,10,8,7,1,0,1,1,7,9,7,-3.38,-18.9,29.9,t
4,10,9,7,1,0,1,1,7,9,7,-3.38,-19.9,31.8,t
4,8,9,6,2,0,1,1,7,9,7,-3.93,-19.6,31.5,t
4,9,8,8,2,1,1,1,7,9,7,-3.98,-19.8,31.3,t
3,8,7,7,2,0,1,1,7,9,7,-3.28,-19.5,31.2,t
3,11,7,8,2,1,1,1,7,9,7,-3.87,-19.4,30.9,t
4,11,7,8,2,1,1,1,7,9,7,-3.57,-19.3,31.1,t
2,12,7,8,2,1,1,1,7,9,7,-3.77,-19.8,30.9,t
0,0,0,0,0,0,0,0,0,0,0,0,0,0,SPACE
3,3,3,3,3,3,3,3,6,9,7,-3.3,-24.1,28,t
3,3,3,3,3,3,3,3,6,9,7,-2.15,-23.8,28,t
3,3,3,3,3,3,3,3,6,9,7,-3.07,-24.4,28.4,t
3,3,3,3,3,3,3,3,6,9,7,-3.24,-24,29.2,t
4,7,19,29,8,6,4,2,6,9,7,-2.25,-27.3,26.5,t
4,7,21,24,7,7,3,2,6,9,7,-1.56,-30.3,24.4,t
4,6,32,21,7,6,6,2,6,9,7,-6.13,-30.6,24.5,t
4,6,31,19,7,9,6,3,6,9,7,-13,-31.9,24.3,t
4,6,28,18,6,9,5,2,6,10,7,-11,-29.9,24.5,t
4,5,31,18,7,8,9,4,6,10,7,-12.1,-30.6,25.1,t
5,5,38,15,7,8,11,4,6,11,8,-14.4,-29.5,24.2,t
5,7,43,14,7,9,14,4,6,11,8,-16.4,-27.9,22.5,t
6,7,46,13,6,9,20,4,6,11,8,-17.9,-29.1,21.5,t
6,8,43,16,7,9,20,6,6,12,8,-19.7,-24.4,20.4,t
8,9,32,19,6,10,21,8,6,12,8,-20.4,-23.8,19.8,t
8,9,36,24,6,8,24,8,6,13,8,-23.5,-21.6,18.3,t
9,9,36,28,7,11,29,13,6,13,8,-23.2,-21.2,19,t
9,9,41,26,7,15,29,15,6,13,9,-26,-18.8,19.4,t
9,9,41,25,7,17,32,15,7,13,9,-25.8,-16.8,19.2,t
10,8,34,27,8,22,35,15,7,13,9,-27.1,-15.2,19.4,t
9,7,28,28,9,23,35,16,7,13,9,-27.6,-15.3,19.8,t
8,5,38,32,8,26,37,14,7,14,9,-29.1,-13.7,20.5,t
6,4,44,32,8,30,35,14,7,14,9,-29,-14.7,20.4,t
6,6,44,26,8,30,33,15,7,14,9,-30,-12.4,20.4,t
5,6,55,23,6,26,30,12,7,14,10,-31.1,-12.4,21.1,t
7,10,50,22,7,24,27,12,7,14,10,-28.6,-10.5,22.3,t
6,11,50,27,7,22,26,13,7,14,10,-30.5,-10.6,23.5,t
7,12,53,23,6,19,25,14,7,14,10,-31.4,-11.3,25.5,t
8,12,54,20,5,17,21,13,7,14,10,-37.1,-8.63,26.5,t
9,15,48,14,5,14,22,13,7,14,9,-35.4,-9.96,25.2,t
9,17,46,13,5,10,23,14,7,14,9,-36.6,-9.8,23.1,t
10,21,48,13,5,9,24,13,7,14,9,-34.4,-12.9,21.5,t
10,26,39,12,6,11,23,12,7,14,9,-35.9,-12.9,20.2,t
8,25,48,13,5,11,25,9,7,14,9,-32.9,-15,18.6,t
9,25,51,9,5,12,19,11,7,14,8,-32.1,-16.6,18.3,t
9,36,53,11,6,13,17,10,6,14,8,-31.2,-17.1,17.7,t
8,46,52,11,6,13,15,10,6,14,8,-29.3,-18.7,17.1,t
8,45,53,13,7,16,17,9,6,13,8,-27.1,-20.1,16.8,t
8,48,54,16,8,18,15,8,6,13,7,-25.1,-21.8,15.7,t
8,51,53,16,8,18,15,6,6,13,7,-25,-21.9,16.2,t
10,48,52,16,8,20,17,8,6,13,7,-22.9,-22.1,15.2,t
11,45,45,16,7,19,14,9,6,12,7,-21,-23.6,15.2,t
10,52,36,16,7,18,17,7,5,12,7,-18.9,-23.6,14.8,t
7,47,33,14,5,16,17,6,5,12,7,-18.1,-25.9,14.7,t
8,39,32,14,6,15,18,11,5,11,7,-15.6,-27,14.6,t
9,41,30,15,5,14,18,14,5,11,7,-12.8,-26.8,13.7,t
9,35,30,12,5,11,21,15,5,11,6,-13.8,-33.7,12.7,t
12,30,27,12,6,12,26,17,5,11,6,-13.4,-33.8,12.6,t
10,28,29,11,6,8,25,15,5,11,6,-13.3,-34.9,12.6,t
10,28,26,11,6,6,29,16,5,11,6,-13.3,-35.3,12.7,t
15,20,25,9,7,7,34,16,5,11,6,-13.2,-35.3,12.1,t
15,15,24,10,8,8,32,16,5,11,6,-13.3,-33.4,12.1,t
16,15,26,9,7,9,33,11,5,11,6,-14.1,-33.4,12.7,t
17,13,24,8,10,8,29,9,5,11,6,-13.5,-31.3,12.9,t
16,15,19,9,10,9,26,8,5,11,6,-13.5,-29.5,14.2,t
13,14,17,9,9,8,21,7,5,11,7,-14.5,-27.4,14.1,t
12,14,15,11,10,8,20,7,5,11,7,-14.6,-28.8,14.6,t
11,14,16,11,10,9,16,5,6,11,7,-17.4,-24.7,15.9,t
6,13,17,10,9,9,9,5,6,12,7,-18.8,-28.4,18.3,t
6,11,18,8,9,11,9,5,6,12,7,-20.4,-21.3,19.9,t
5,10,17,10,11,11,8,5,6,12,7,-21.4,-23.2,21.2,t
4,8,17,9,9,11,7,4,6,12,7,-19.5,-24,21.8,t
4,6,18,7,8,10,7,4,6,12,7,-20.5,-18.6,24.3,t
4,3,18,7,6,11,6,3,6,12,7,-17.5,-22.5,24.3,t
4,3,17,4,6,12,6,2,7,12,8,-20.1,-16.2,26.5,t
4,4,16,10,7,12,5,2,7,11,8,-19.3,-17.1,29,t
4,4,14,10,6,12,5,2,7,11,8,-16.6,-16.6,29,t
5,7,12,10,6,11,5,1,7,11,8,-14.2,-20.6,30.3,t
5,10,11,10,4,13,6,1,7,10,8,-11.9,-20.4,31.9,t
5,9,9,10,5,12,6,1,7,10,8,-7.4,-21.5,31.6,t
4,9,8,11,7,10,5,2,7,9,8,-7.89,-21.7,32.5,t
4,11,8,12,8,11,5,2,7,9,8,-4.77,-25.9,31,t
5,16,5,13,9,11,5,2,7,9,8,-3.11,-19.5,31.3,t
5,15,5,11,8,11,5,2,7,9,8,-3.01,-22.8,32,t
5,17,8,11,8,10,5,2,7,9,8,-0.0391,-20,31.9,t
4,14,9,12,9,9,4,2,7,9,8,-1.64,-23.2,34.6,t
3,12,9,11,10,6,3,2,7,9,8,0.293,-23.6,36,t
3,13,8,11,9,6,3,2,7,9,8,-2.58,-19.1,32.3,t
3,13,9,10,7,5,3,1,7,9,8,0.762,-19.2,29.4,t
3,11,10,10,7,4,2,1,7,9,8,3.11,-21.1,30.5,t
2,6,10,8,6,3,2,1,7,9,8,0.84,-20.5,30.1,t
2,5,9,5,6,3,2,1,7,9,8,0.332,-19.6,30.2,t
2,5,9,5,6,2,2,1,7,9,8,-0.332,-19.4,31.1,t
1,5,9,3,5,1,2,1,7,9,8,-0.977,-19.2,32.1,t
1,9,9,3,4,1,1,1,7,9,8,-1.86,-19.2,32.8,t
1,8,11,3,4,1,1,0,7,9,8,-2.36,-19,32.2,t
1,8,11,3,3,1,1,1,7,9,8,-1.82,-20.3,31.4,t
0,8,10,3,3,1,1,0,7,9,8,-2.13,-20,30.8,t
0,9,10,3,3,1,1,0,7,9,8,-1.99,-20.1,30.8,t
0,9,11,3,3,1,1,0,7,9,8,-2.64,-19.9,31.2,t
0,7,10,3,2,0,0,0,7,9,8,-2.73,-19.7,31.4,t
0,7,9,4,2,0,0,0,7,9,8,-3.03,-19.9,31.2,t
0,4,8,4,2,1,0,1,7,9,8,-3.26,-20,31.2,t
0,4,8,4,2,0,0,1,7,9,8,-3.07,-20.3,31,t
1,6,8,4,2,0,0,1,7,9,8,-2.93,-19.4,31.2,t
2,6,8,3,3,0,0,1,7,9,8,-3.05,-19.5,31.1,t
2,6,8,3,2,0,1,1,7,9,8,-3.24,-20,31.2,t
3,7,8,3,3,0,0,1,7,9,8,-2.95,-19.8,31,t
3,6,8,3,3,0,1,1,7,9,8,-3.18,-19.9,31.1,t
3,7,11,2,2,0,1,1,7,9,8,-3.05,-19.7,31.1,t
0,0,0,0,0,0,0,0,0,0,0,0,0,0,SPACE
3,3,3,3,3,3,3,3,7,9,8,-4.2,-22.4,29,t
3,3,3,3,3,3,3,3,7,9,8,-4.28,-20.6,30.8,t
3,3,3,3,3,3,3,3,7,9,8,-3.54,-21.7,30.3,t
3,3,3,3,3,3,3,3,6,9,8,-2.23,-21.9,29.5,t
2,6,19,6,4,6,7,4,6,9,8,-2.44,-26.7,27.5,t
3,6,20,6,5,5,6,4,6,9,8,-4.18,-28.8,25.1,t
3,6,17,7,5,6,6,4,6,9,8,-5.33,-31.2,24.9,t
3,5,20,7,5,6,6,4,6,9,8,-5.78,-26.8,25.1,t
5,4,22,11,6,8,15,6,6,10,8,-7.91,-29.6,24,t
8,4,29,12,6,8,19,6,6,10,8,-9,-30.7,24.1,t
10,10,32,14,7,7,23,9,6,10,8,-11.8,-29,22.8,t
16,10,30,14,7,8,27,9,6,10,8,-11.5,-29.8,23,t
18,14,34,19,10,9,35,9,6,11,8,-15.8,-27,20.6,t
18,13,33,22,9,16,36,13,6,11,8,-15.5,-29.7,20.8,t
19,16,39,31,13,16,40,13,6,11,8,-18.8,-27.7,19.8,t
20,17,47,35,14,19,43,14,6,12,8,-21.4,-27.7,18.2,t
19,16,43,30,13,18,42,13,6,12,8,-23.4,-24.2,17.3,t
16,17,36,29,14,21,40,14,6,12,8,-24.5,-22.3,17.4,t
16,12,39,29,14,22,36,12,6,13,9,-24.7,-21.1,18.8,t
11,13,44,27,14,28,37,13,6,13,9,-25.7,-19.5,18.8,t
9,14,50,25,14,29,35,14,6,13,9,-26.2,-19,19.2,t
10,16,60,23,16,34,42,11,6,13,9,-27.1,-18.5,18.6,t
8,14,56,15,11,33,41,12,6,13,9,-27.9,-17.1,18.2,t
11,17,52,12,10,32,40,13,6,14,9,-29.7,-17.4,17.7,t
11,17,59,12,11,38,33,12,6,14,9,-29.5,-16.7,18.5,t
11,18,61,14,10,37,37,12,6,14,10,-30.7,-16,18.8,t
10,17,54,14,10,38,36,11,6,14,10,-30.4,-17.1,18.3,t
8,17,58,17,10,37,40,14,7,14,10,-30.6,-14.3,18.1,t
9,18,50,14,8,37,33,14,7,14,10,-30.5,-16.3,19.5,t
9,16,54,17,5,25,24,13,7,14,10,-30.9,-14.3,20.4,t
12,17,54,20,6,28,27,14,7,14,10,-31.2,-14.8,23.4,t
9,20,51,20,5,27,25,13,7,14,10,-33.8,-12.9,24.3,t
8,20,49,20,4,22,27,13,7,14,10,-36.8,-13,24.6,t
8,21,54,22,3,20,25,12,7,14,9,-36.6,-13.8,22.8,t
9,21,55,23,2,21,27,13,7,14,9,-36.5,-15.8,21.2,t
9,20,57,21,2,17,18,9,7,14,9,-36,-14.5,19.1,t
9,14,60,21,3,14,18,10,7,14,9,-33.5,-16.2,17.8,t
12,14,57,20,3,16,22,10,6,14,9,-32.2,-17.4,16.6,t
9,15,64,15,4,15,20,12,6,14,8,-29.6,-16.5,15.2,t
11,11,65,13,4,14,28,12,6,14,8,-28.5,-17.7,15,t
12,12,62,17,4,14,29,16,6,13,8,-27,-18.9,15,t
14,16,60,15,4,13,27,16,6,13,8,-24.5,-19.4,15.4,t
16,21,66,17,5,13,28,15,6,13,8,-24.7,-21.8,15.6,t
17,26,55,16,5,12,34,15,6,13,8,-24.6,-22.2,15.7,t
16,28,50,15,4,12,38,14,6,12,7,-23.3,-24.5,16.1,t
14,30,41,14,4,15,41,15,6,12,7,-21.7,-26.2,16,t
17,30,42,17,5,17,42,12,5,12,7,-18.4,-26.8,15.4,t
17,27,36,17,5,16,35,12,5,11,7,-16.7,-28.5,16,t
19,35,39,14,6,16,39,15,5,11,7,-14.6,-28.8,15,t
17,29,40,17,5,17,38,17,5,11,7,-13.1,-32.3,15,t
15,25,36,13,5,16,36,23,5,10,7,-11.3,-32.2,15.5,t
16,21,50,19,6,16,33,28,5,10,7,-9.36,-32.1,14.8,t
15,19,49,20,7,16,29,27,5,10,7,-9.26,-32.3,14.4,t
16,19,56,22,6,11,22,27,5,10,7,-9.24,-35.1,14.4,t
16,17,45,18,5,7,18,27,5,10,7,-9.55,-36.1,14.8,t
15,20,45,20,5,8,20,26,5,10,7,-9.3,-37.7,13.7,t
12,13,46,19,6,8,16,25,5,10,7,-9.75,-37.1,13.9,t
14,11,42,15,7,8,17,23,5,10,7,-10.1,-36.1,13.5,t
13,13,42,14,7,7,17,17,5,10,7,-11,-36.4,12.9,t
12,12,34,9,7,8,16,13,5,10,7,-11.4,-34.4,12.3,t
13,13,33,8,7,7,18,15,5,10,7,-11.9,-34.5,12,t
10,11,33,7,8,8,23,14,5,11,7,-12.8,-32.7,12.2,t
8,11,35,9,12,9,25,13,5,11,7,-14.8,-32.2,12.8,t
11,8,35,8,14,9,20,16,5,11,7,-15.6,-31.7,13.4,t
12,7,28,8,14,10,17,11,5,11,7,-15.7,-27.9,14.3,t
13,6,28,10,12,9,21,12,5,12,7,-15.1,-26.3,14,t
15,5,30,13,14,9,25,13,5,12,7,-16.4,-24.2,15.3,t
16,6,27,13,14,7,27,15,6,12,7,-18.8,-25,15.5,t
17,5,28,13,15,11,29,11,6,12,7,-23.3,-25.2,18.4,t
17,7,27,12,15,11,24,14,6,12,7,-20.5,-19.1,16.9,t
17,6,27,10,14,13,22,14,6,12,8,-23.9,-21.1,21.3,t
13,6,28,9,13,12,22,10,6,12,8,-21.5,-16.2,20.8,t
12,6,29,9,12,13,25,11,7,12,8,-22.5,-16.2,23.8,t
10,7,31,7,12,17,20,9,7,12,8,-17,-14.9,24.5,t
7,7,34,6,12,17,15,7,7,12,8,-21.1,-19.4,26.4,t
5,5,35,7,10,17,14,6,7,11,8,-16.2,-15.8,27.3,t
6,5,32,10,9,14,11,5,7,11,9,-17.1,-22.8,31.2,t
5,4,24,10,9,13,12,2,7,10,9,-9.86,-20.1,31.5,t
5,4,22,10,6,11,12,2,7,10,8,-11.8,-23.7,31.7,t
6,4,21,10,6,9,11,2,6,10,8,-9.16,-25.1,30.9,t
6,3,18,11,5,8,8,1,6,10,8,-10.1,-24.3,32.4,t
6,4,17,13,7,5,6,1,6,9,8,-7.29,-27,30.6,t
5,5,9,11,6,4,6,1,6,9,8,-6.6,-25.1,30.4,t
5,6,7,10,7,4,4,0,6,9,8,-5.59,-25.3,28.7,t
3,6,8,6,6,3,3,1,6,9,8,-3.13,-24.3,27.5,t
3,6,10,6,5,3,1,1,6,9,8,-2.38,-26.5,27.2,t
3,7,10,6,6,2,1,1,6,9,8,-1.95,-27.2,28.3,t
2,7,10,7,5,2,1,1,6,9,8,-2.07,-27.4,28.1,t
2,7,10,7,5,2,1,1,6,9,8,-2.46,-24.7,28.2,t
3,6,8,5,3,2,1,1,6,9,8,-2.42,-25.7,28.5,t
3,5,8,5,3,1,1,1,6,9,8,-3.89,-25.5,28.7,t
3,4,5,5,3,1,1,1,6,9,8,-4.12,-25,27.8,t
2,4,5,5,3,1,1,1,6,9,8,-4.16,-25.5,27.1,t
2,3,3,5,3,1,1,1,6,9,8,-3.22,-25.7,26.1,t
2,3,4,5,3,1,1,1,6,9,8,-3.28,-25.5,26.3,t
2,3,5,4,3,1,1,1,6,9,8,-3.38,-24.9,26.7,t
2,3,5,4,2,1,1,1,6,9,8,-3.91,-24.5,27.5,t
0,3,6,3,3,1,1,1,6,9,8,-4.2,-24.3,27.6,t
0,3,6,3,3,1,1,1,6,9,8,-3.95,-24.6,27.5,t
0,5,7,4,3,1,0,1,6,9,8,-3.79,-24.6,27.5,t
0,0,0,0,0,0,0,0,0,0,0,0,0,0,SPACE
3,3,3,3,3,3,3,3,6,9,8,-5.16,-25,27.5,t
3,3,3,3,3,3,3,3,6,9,8,-5.23,-23.5,28.2,t
3,3,3,3,3,3,3,3,6,9,8,-4.36,-25,26.4,t
3,3,3,3,3,3,3,3,6,9,8,-4.18,-25,27.5,t
9,13,12,33,6,2,7,8,6,9,8,-4.04,-27.3,25.1,t
8,11,13,30,7,3,14,7,6,9,8,-4.98,-32.9,22.4,t
9,11,11,28,8,3,14,10,6,9,8,-6.58,-31.1,22.8,t
9,11,26,26,7,4,15,9,6,9,8,-7.85,-27.3,23.9,t
9,11,29,28,8,6,20,11,6,10,8,-11.1,-31.8,21.2,t
10,9,35,28,8,7,20,12,6,10,8,-10,-36.8,22.7,t
10,12,35,29,7,7,22,15,6,10,8,-14.6,-30.4,21,t
11,12,41,28,8,8,24,16,6,11,8,-15.5,-32.3,20.3,t
9,11,54,20,9,9,21,17,6,12,9,-18.3,-27.7,18.5,t
9,11,68,22,8,8,20,19,6,12,9,-19.6,-27.3,17.8,t
7,10,74,21,8,10,22,17,6,12,9,-20.8,-24.5,17.6,t
7,10,64,26,11,12,19,18,6,12,9,-22.2,-22,18.7,t
7,8,60,23,8,12,15,15,6,13,9,-23.4,-22.2,19.1,t
5,8,59,25,8,12,18,13,6,13,9,-24.7,-20.8,19.2,t
4,4,58,23,7,11,16,10,6,13,9,-25.7,-21,19.1,t
4,4,54,19,7,11,18,10,6,13,10,-27.2,-19.5,19,t
7,7,43,17,7,11,22,11,6,13,10,-27.6,-18.5,19.2,t
7,8,31,18,8,15,19,9,6,13,10,-28.6,-17.3,18.9,t
7,8,35,19,7,13,16,9,6,13,10,-28.2,-16.6,19.6,t
11,8,33,13,4,11,17,10,6,13,10,-29.1,-15.8,19.4,t
11,9,35,12,5,15,19,14,6,13,10,-28.9,-14.7,19.2,t
11,10,31,9,5,14,17,15,7,13,10,-30.5,-15.1,22.2,t
12,12,42,11,6,14,16,16,7,13,10,-32.1,-14.6,24.6,t
12,11,47,13,6,14,12,15,7,13,10,-33.8,-13.9,26.7,t
11,10,50,14,5,15,9,13,7,14,10,-35.5,-13.4,27.6,t
11,12,49,9,4,11,9,12,7,14,10,-36.2,-12.9,26.7,t
12,16,40,10,4,11,9,11,7,14,10,-37.5,-13.5,24.8,t
10,18,39,10,4,10,10,9,7,14,9,-36.1,-13.2,21.4,t
10,17,35,11,3,5,8,8,7,14,9,-32.7,-13.8,20.3,t
13,16,37,11,3,5,8,9,7,14,9,-30.1,-16.3,18.6,t
13,18,34,12,3,7,9,8,7,14,9,-27.9,-13.8,17.7,t
12,19,27,10,4,7,11,6,7,13,8,-25.3,-17.2,17.8,t
11,25,20,9,4,7,12,7,6,13,8,-24.4,-15.6,18.6,t
11,21,28,10,4,8,16,11,6,13,8,-23.1,-18.2,18.7,t
11,18,32,11,5,8,15,13,6,13,8,-22.8,-19.3,18.9,t
11,19,43,11,5,9,12,15,6,12,8,-22.8,-19.4,18.9,t
11,21,52,10,6,9,13,14,6,12,8,-22.2,-21.3,19.9,t
8,22,53,13,6,9,12,13,6,12,7,-21,-22.7,19.9,t
7,20,46,11,7,7,13,14,6,12,7,-19.7,-23.1,19.8,t
8,22,47,11,6,7,11,15,6,11,7,-16.7,-24.6,19.5,t
11,15,51,14,7,5,12,14,6,11,7,-14.6,-24.9,19.2,t
10,18,40,16,8,4,8,11,6,11,7,-12.9,-25.1,18.5,t
13,17,40,18,7,4,10,10,6,11,7,-11.7,-26.1,18.5,t
15,16,30,18,7,3,10,11,6,10,7,-11.6,-28.3,18.5,t
14,23,31,20,6,4,11,10,6,10,7,-11.3,-29.8,18.1,t
15,23,32,17,5,4,11,10,6,10,7,-11.6,-30.3,19.4,t
15,22,38,16,4,5,10,11,6,10,7,-11.7,-33,21.2,t
14,19,42,20,4,9,11,12,6,10,7,-11.1,-34.5,21.4,t
14,20,44,17,3,8,8,13,6,10,7,-10.7,-33.8,21.3,t
16,20,54,14,3,9,8,13,6,10,7,-10.1,-32,20.8,t
15,20,48,11,4,10,10,11,6,10,7,-10.6,-31.9,19.5,t
13,21,51,12,6,9,15,10,6,10,7,-10.7,-31.1,19.1,t
14,11,49,12,6,10,15,9,6,11,7,-11.6,-28.7,18.3,t
13,9,47,13,9,9,15,9,6,11,7,-13.2,-29.7,18.5,t
13,10,43,14,10,9,15,7,6,11,7,-13.5,-28,18.9,t
14,10,41,10,9,6,14,6,6,11,7,-13.7,-26.5,19,t
12,9,35,10,8,6,13,5,6,11,7,-14.5,-26.1,19.4,t
10,5,26,10,9,7,14,4,6,11,7,-15.6,-24.6,19.9,t
7,5,29,9,10,7,11,4,6,12,7,-16,-24.4,19.9,t
7,3,28,8,10,9,7,3,6,12,7,-18.9,-21.3,21,t
5,3,21,5,11,9,5,3,6,12,8,-17.5,-17.9,20.3,t
5,3,22,6,9,9,5,3,7,12,8,-18.8,-17.5,21.3,t
4,2,19,5,9,8,5,2,7,12,8,-21.5,-14.3,22.2,t
4,2,17,6,9,9,6,3,7,12,8,-21.7,-13.5,25.1,t
4,2,20,5,11,9,6,2,7,12,8,-25.7,-12.7,25.5,t
5,2,20,6,10,7,5,2,7,12,9,-21.6,-14.4,27.7,t
4,2,18,5,8,6,4,2,7,12,9,-23.9,-12.3,29.4,t
4,3,14,5,7,4,3,2,7,11,9,-17.6,-14.7,28.9,t
5,3,15,5,7,4,2,2,7,11,9,-17.8,-18.6,30.6,t
5,5,11,3,8,4,3,2,7,11,9,-14.2,-17.3,32.2,t
6,6,9,6,8,4,3,2,7,10,9,-12,-24.1,30.2,t
6,12,9,5,8,4,3,2,7,10,9,-10.4,-20.1,34,t
6,12,6,5,6,4,3,2,7,9,9,-8.03,-25.4,33.3,t
6,14,8,5,7,6,3,2,7,9,9,-5.49,-23.8,33,t
7,14,9,4,7,7,3,1,6,9,9,-5.06,-25.5,31.5,t
6,21,10,4,7,7,3,1,6,9,9,-3.57,-23.4,30.6,t
6,23,10,5,6,6,3,1,6,9,8,-3.44,-26.5,29.9,t
5,20,9,6,5,6,3,1,6,9,8,-2.77,-24.8,30.8,t
7,20,9,5,5,5,2,2,6,9,8,-0.938,-25.9,29.3,t
5,13,9,5,5,4,1,1,6,9,8,-1.02,-26.7,28.4,t
5,14,8,5,5,4,1,1,6,9,8,-0.293,-24.8,26.2,t
5,12,6,5,4,2,1,1,6,9,8,0.527,-26.5,26.7,t
4,12,4,5,4,1,1,1,6,9,8,-0.84,-26.3,27,t
4,5,3,6,3,1,0,1,6,9,8,-1.97,-25.1,28.3,t
3,3,2,4,3,1,0,1,6,9,8,-3.69,-23.4,29.5,t
3,3,2,4,3,1,0,1,6,9,8,-3.34,-22.9,29.2,t
2,4,4,8,3,1,0,1,6,9,8,-3.24,-23.1,28.9,t
2,4,4,9,3,1,0,0,6,9,8,-3.13,-24.2,27.9,t
1,4,4,10,2,0,0,0,6,9,8,-2.81,-24,27.6,t
1,3,4,11,3,1,0,0,6,9,8,-3.01,-24.3,27.9,t
2,4,4,12,4,1,0,1,6,9,8,-2.97,-24.1,27.9,t
2,3,3,13,4,1,0,1,6,9,8,-3.11,-23.6,28.5,t
2,4,3,13,4,1,1,1,6,9,8,-3.4,-23.6,28.2,t
2,3,3,13,4,1,1,1,6,9,8,-3.24,-23.4,28.2,t
2,3,0,8,4,1,1,1,6,9,8,-3.34,-23.7,28.3,t
2,4,0,8,4,1,1,1,6,9,8,-3.32,-23.4,28.4,t
0,0,0,0,0,0,0,0,0,0,0,0,0,0,SPACE
3,3,3,3,3,3,3,3,6,9,8,-3.71,-23.2,28.6,t
3,3,3,3,3,3,3,3,6,9,8,-5.2,-24.4,27.8,t
3,3,3,3,3,3,3,3,6,9,8,-4.49,-22.7,27.8,t
3,3,3,3,3,3,3,3,6,9,8,-5.25,-23.2,28.5,t
11,7,28,57,6,2,4,9,6,9,8,-3.55,-25.2,28.3,t
10,6,35,48,5,2,5,11,6,9,8,-3.2,-25.9,27.3,t
9,6,31,44,5,2,6,10,6,9,8,-4.8,-26.5,26.9,t
11,9,36,40,4,3,14,9,6,9,8,-7.75,-33.5,22.6,t
10,9,33,44,4,4,19,12,6,10,8,-8.26,-29.8,21.8,t
10,10,36,52,6,6,22,12,6,10,8,-13.2,-33.5,20.3,t
9,10,38,43,6,7,22,12,6,10,8,-11.3,-32.6,20.4,t
9,8,45,33,5,7,23,12,6,10,8,-13.3,-32.1,19.1,t
7,8,40,25,5,8,27,11,6,11,8,-14.2,-29.7,18.8,t
7,8,38,25,5,10,28,9,6,11,8,-15.5,-30,17.7,t
7,7,47,30,5,12,28,10,6,11,9,-20.2,-28.1,18.7,t
7,4,39,35,5,14,20,9,6,12,9,-22.4,-27.7,19.5,t
10,5,51,39,7,14,22,6,6,12,9,-25.4,-24.5,20.1,t
12,4,50,33,5,14,20,6,6,12,9,-24.4,-23.8,20.8,t
11,4,59,35,5,13,23,7,6,13,9,-25.3,-22.1,20.6,t
13,4,52,33,4,17,25,7,6,13,10,-25.1,-21.3,20.3,t
13,5,56,40,5,19,22,5,6,13,10,-25.5,-19.4,19.9,t
14,6,63,44,5,21,23,6,6,13,10,-25.4,-18.1,18.9,t
13,6,61,41,6,20,22,7,7,13,10,-26.3,-16.9,18.9,t
12,6,68,35,5,17,28,9,7,13,10,-27.5,-15.5,19,t
9,8,62,29,6,20,25,10,7,13,10,-27.8,-14.8,19.5,t
7,8,67,28,7,19,22,11,7,13,11,-27.2,-14.3,19.9,t
9,10,58,23,7,19,24,11,7,13,11,-27.2,-14.6,19.7,t
8,10,58,30,9,17,28,12,7,13,11,-28.7,-13.9,20.3,t
7,10,57,21,9,18,32,13,7,13,11,-28.6,-14.1,21.2,t
6,8,52,17,10,14,28,11,7,13,11,-28.3,-11.9,23.4,t
7,9,45,14,12,18,29,10,7,13,11,-28.3,-14.1,24.7,t
8,11,43,17,12,21,23,8,7,13,11,-27.8,-13.3,25.7,t
10,8,42,17,9,20,22,6,7,13,11,-27.8,-12.1,25.6,t
10,9,39,17,9,21,22,5,7,13,11,-29.6,-11.7,27.2,t
9,7,41,17,8,25,20,3,7,13,11,-31.3,-10,29.5,t
11,6,39,10,6,22,17,2,7,13,11,-33.6,-10.1,28.7,t
15,9,33,11,7,21,17,2,7,13,11,-31.7,-11.8,27.1,t
15,12,32,11,6,22,20,3,7,13,10,-32.6,-13.2,26,t
18,11,42,18,4,18,20,2,7,13,10,-32.2,-16.3,24.3,t
17,14,36,14,4,15,22,4,7,13,10,-31.8,-15,22.3,t
16,17,32,12,5,15,22,4,7,13,10,-30.9,-13.7,21.6,t
14,17,29,14,6,15,24,4,7,13,10,-30.4,-15.9,20.8,t
15,24,26,15,6,11,23,5,7,13,9,-28,-16.2,19.5,t
14,31,37,18,6,11,27,6,7,13,9,-27.6,-17,19,t
10,31,42,20,6,12,22,6,6,13,9,-27.2,-18.7,17.5,t
11,29,51,21,5,14,21,5,6,13,9,-25.1,-18.4,16.6,t
8,34,50,14,5,15,21,9,6,13,8,-25,-17.6,15.2,t
12,36,58,15,6,15,20,8,6,13,8,-22.6,-21.1,16.3,t
18,40,64,15,9,13,22,10,6,12,8,-20.6,-21,15.7,t
19,40,65,13,7,12,22,12,6,12,8,-18.9,-24.3,15.9,t
20,33,69,14,7,14,25,12,6,11,8,-16.1,-25,16.5,t
24,27,59,11,8,14,17,12,5,11,7,-11.8,-29.4,15.9,t
23,29,56,11,9,12,19,13,5,10,7,-10.2,-32.3,15.6,t
22,29,45,10,10,11,19,14,5,10,7,-10.3,-33.4,15.7,t
24,26,36,9,11,10,20,12,5,10,7,-9.82,-33.1,16,t
20,19,31,10,12,11,21,13,5,10,7,-9.61,-35.2,16.8,t
14,14,24,10,10,11,22,12,5,10,7,-9.92,-34.9,17,t
14,13,20,10,11,12,21,10,5,10,7,-9.22,-36.1,17.1,t
13,17,18,10,10,12,17,9,5,10,7,-8.59,-35.2,16.7,t
8,17,28,10,10,10,22,10,5,10,7,-8.89,-33.9,17,t
10,13,34,8,8,9,21,8,5,10,7,-8.44,-31.8,16.5,t
9,11,32,7,7,8,22,8,5,10,7,-9.86,-34.1,16.7,t
6,12,35,9,7,8,18,6,5,10,7,-10.3,-31.8,16.2,t
9,20,34,8,5,7,17,5,5,10,7,-12.1,-31.6,16.9,t
9,19,36,9,5,9,15,5,5,11,7,-13.3,-31.6,17.3,t
10,20,34,8,4,9,13,5,6,11,7,-12.5,-27.4,16.5,t
9,15,33,6,5,8,17,5,6,11,7,-13,-26.8,17.6,t
9,15,24,6,7,8,13,4,6,11,8,-17.1,-22.8,18,t
9,13,16,7,7,10,14,5,6,12,8,-16.9,-23.2,18,t
9,13,16,7,8,9,12,5,6,12,8,-17.8,-23,19.2,t
10,10,13,5,18,9,17,4,6,12,8,-18.7,-15.5,20.8,t
7,3,12,5,20,10,15,4,7,12,8,-20.3,-16.8,21.5,t
6,3,11,4,19,9,15,4,7,12,8,-21.9,-15,23.9,t
5,2,11,4,24,8,16,4,7,12,9,-20.4,-13.3,27.3,t
4,2,11,4,25,8,13,3,7,11,9,-15.6,-16.9,29.8,t
5,2,8,4,26,8,11,2,7,11,9,-13.6,-18.3,31.3,t
3,1,8,4,26,7,10,2,7,10,9,-8.05,-21.3,28.9,t
2,4,6,4,28,7,9,1,7,10,9,-8.26,-25.1,34.2,t
2,4,8,5,20,6,5,1,6,9,9,-7.36,-28.4,34.9,t
1,4,9,5,19,4,5,1,6,9,9,-7.95,-23.5,35.5,t
1,4,10,5,19,2,4,1,6,9,9,-7.01,-28.7,33.6,t
2,11,10,8,15,3,3,1,6,9,9,-7.73,-22.9,33.5,t
1,13,10,10,14,3,3,1,6,9,9,-5.72,-25.4,30.3,t
1,14,12,9,11,3,3,1,6,9,9,-3.69,-26,27,t
1,14,14,10,10,2,3,1,6,9,9,-3.59,-25.2,24.9,t
2,13,14,11,7,3,3,1,6,9,8,-2.34,-28.4,25.9,t
2,13,14,13,5,2,3,1,6,9,8,-3.42,-27.2,26.7,t
2,13,13,12,3,2,3,1,6,9,8,-2.77,-25.6,29.3,t
2,14,12,14,3,2,3,1,6,9,8,-3.34,-23.5,31.3,t
1,7,13,12,1,2,2,1,6,9,8,-3.75,-20.7,31.9,t
1,6,13,11,1,1,1,1,6,9,8,-4.75,-21.1,31.4,t
2,12,16,12,2,1,1,1,7,9,8,-4.22,-22.5,29.5,t
2,13,20,13,2,1,1,1,7,9,8,-3.89,-24.2,28.2,t
2,12,23,10,2,1,1,1,7,9,8,-3.75,-24.1,26.8,t
2,13,22,8,2,1,1,1,7,9,8,-3.05,-23.1,27.6,t
2,13,23,9,2,1,1,1,7,9,8,-3.57,-22.6,28.9,t
2,14,24,8,2,1,1,1,7,9,8,-3.55,-21.6,29.4,t
3,14,31,13,3,2,2,2,7,9,8,-3.95,-21.6,30.2,t
3,16,38,14,3,2,2,2,7,9,8,-3.83,-21.9,30.1,t
2,12,38,15,3,1,1,2,7,9,8,-3.89,-22.1,29.8,t
0,0,0,0,0,0,0,0,0,0,0,0,0,0,SPACE
3,3,3,3,3,3,3,3,7,9,8,-4.3,-23.9,28,t
3,3,3,3,3,3,3,3,7,9,8,-4.9,-22.8,28.6,t
3,3,3,3,3,3,3,3,7,9,8,-3.36,-23.2,28.8,t
3,3,3,3,3,3,3,3,7,9,8,-4.47,-23.1,28.7,t
3,8,19,19,2,2,4,2,6,9,8,-4.9,-23.1,28.6,t
4,9,23,20,1,1,4,2,6,9,8,-3.71,-23.6,28.2,t
3,12,21,23,1,1,3,2,6,9,8,-4.2,-23.6,28,t
4,12,19,22,1,1,3,2,6,9,8,-4.43,-24.4,28.1,t
3,12,18,23,1,1,2,2,6,9,8,-4.34,-24.6,27.6,t
3,14,18,21,1,1,2,1,6,9,8,-4.04,-23.8,27.9,t
4,13,16,19,1,1,1,1,6,9,8,-3.71,-24.6,27.5,t
4,12,14,18,2,1,1,1,6,9,8,-3.57,-23.4,27.9,t
3,12,13,16,1,1,1,1,6,9,8,-4.04,-24.5,28,t
2,11,13,19,3,1,1,1,6,9,8,-3.71,-24.1,27.9,t
3,8,14,21,3,1,1,1,6,9,8,-4.98,-24.2,27.6,t
2,6,15,26,3,2,2,1,6,9,8,-4.86,-24,28.1,t
3,8,15,32,4,2,1,3,6,9,8,-4.63,-26.6,27.8,t
3,5,21,40,4,1,1,2,6,9,8,-4,-27.1,28.4,t
5,5,32,41,5,3,6,8,6,9,8,-8.42,-31.5,25.8,t
6,4,39,43,5,4,9,8,6,9,8,-7.17,-32.5,24.4,t
7,5,43,44,5,5,16,8,6,10,8,-10.3,-31.6,23.2,t
9,4,46,38,4,7,23,13,6,10,8,-11,-32.1,23.3,t
9,4,48,32,4,8,28,13,6,10,8,-11.8,-32.2,22,t
9,5,48,25,5,8,34,14,6,11,8,-14.4,-29,21.1,t
9,5,57,17,4,8,36,13,6,11,9,-15.2,-29.2,20.9,t
9,5,54,9,4,11,40,14,6,12,9,-19.9,-25,20.1,t
7,6,57,9,3,11,39,9,6,12,9,-21.1,-24,20.2,t
6,6,51,12,4,10,43,9,6,12,9,-22.7,-20.3,20.3,t
7,7,46,15,4,10,40,10,7,13,10,-24,-19.9,20.4,t
4,8,42,15,4,9,36,7,7,13,10,-24,-16.8,20.8,t
3,8,51,20,4,10,31,9,7,13,10,-25.3,-15.8,21.5,t
4,8,50,23,4,9,30,9,7,13,10,-25.6,-12.9,23.2,t
3,8,42,22,4,9,29,8,7,13,11,-25.9,-11.1,23.7,t
4,8,39,25,4,7,27,9,7,14,11,-28.1,-9.02,24.3,t
5,8,38,27,3,7,27,11,7,14,11,-29.3,-9.53,23.7,t
4,7,51,21,4,9,21,12,8,14,11,-29.5,-8.61,23.3,t
5,7,51,19,4,10,20,13,8,14,11,-30.5,-7.79,22.9,t
6,7,56,19,4,9,22,16,8,14,11,-31.8,-6.78,22.8,t
6,6,56,14,4,9,26,15,8,14,11,-31.1,-4.08,22.3,t
7,9,71,11,5,10,28,17,8,14,12,-29.9,-3.48,22.2,t
7,10,72,11,5,10,26,18,8,14,12,-30.6,-5.59,23.4,t
7,11,71,10,5,9,25,17,8,14,12,-31.4,-4.67,24.7,t
6,12,58,10,6,9,22,17,8,14,12,-33,-3.13,26.1,t
5,12,47,9,4,9,25,17,8,14,12,-34.7,-2.23,27.8,t
5,14,51,11,4,9,23,16,8,14,11,-36.5,-1.46,28.3,t
4,14,55,11,4,10,20,12,8,14,11,-35.8,-1.11,27.3,t
5,16,48,11,3,10,16,11,8,14,11,-35.4,-2.85,26,t
4,15,39,10,2,10,11,8,8,14,11,-35.7,-3.42,24.9,t
3,14,38,9,2,11,12,7,8,14,11,-33,-6.27,22.1,t
4,17,46,8,2,11,10,6,8,14,10,-30.4,-6.05,22.2,t
5,21,47,7,2,12,13,6,7,14,10,-30.2,-9.57,21.2,t
7,27,49,9,2,9,11,6,7,13,10,-27.2,-10.4,22,t
8,23,49,7,1,9,10,6,7,13,9,-26.8,-12,21.3,t
8,25,36,8,2,9,11,6,7,13,9,-27.6,-15.1,23,t
7,24,32,7,3,10,10,7,7,13,9,-26.6,-15.7,22.7,t
7,21,29,13,3,10,10,7,6,12,9,-22.9,-18.7,22.6,t
10,19,39,20,7,9,12,7,6,12,8,-20.2,-20.4,22.3,t
12,15,31,22,10,9,15,7,6,12,8,-17.8,-18.9,21.1,t
11,12,37,22,12,9,13,7,6,11,8,-13.9,-23.6,18.7,t
10,12,35,22,14,9,13,6,6,11,8,-13.9,-24.2,19,t
8,12,32,22,14,8,14,6,6,11,8,-12.6,-25.2,18.9,t
8,15,38,21,15,7,16,6,6,10,8,-11,-25.6,18.9,t
9,14,38,21,17,5,17,5,6,10,8,-10.4,-28.9,19.7,t
12,14,37,17,18,6,18,6,6,10,8,-9.92,-30.3,19.7,t
10,15,27,11,15,5,15,6,6,10,8,-10.4,-31.8,20.7,t
7,16,30,10,13,6,14,6,6,10,8,-10.3,-33,20.8,t
8,16,24,9,14,6,14,6,6,10,8,-9.84,-33.4,20.5,t
8,17,28,9,12,7,12,6,6,10,8,-10.3,-32.9,19.5,t
9,17,28,8,13,7,11,5,6,10,8,-11.3,-31.2,19.2,t
8,13,24,8,12,7,9,5,6,10,8,-11.6,-31,19.2,t
9,14,22,9,12,6,8,5,6,11,8,-12.6,-28.8,19.4,t
6,15,22,8,10,6,6,4,6,11,8,-11.6,-28.7,18.7,t
5,17,22,8,12,6,6,4,6,11,8,-11.6,-27.9,19.6,t
5,17,21,6,10,5,4,3,6,11,8,-12.6,-21.2,18.3,t
4,18,22,6,8,5,5,5,6,11,8,-12.1,-21.8,19.8,t
4,12,20,6,9,4,5,5,7,12,8,-19,-17.1,22.2,t
3,12,22,5,8,4,6,5,7,12,9,-20.4,-15.8,23.5,t
4,12,20,5,9,4,6,5,7,12,9,-21.2,-14.4,24.7,t
3,10,20,4,6,4,6,5,7,12,9,-22.7,-10.9,27.8,t
3,9,18,3,6,3,6,5,7,12,9,-20.6,-14.7,30.1,t
3,7,14,3,5,3,6,4,7,11,9,-16.9,-12.2,29.3,t
3,6,13,3,6,3,5,3,7,11,9,-15.8,-15.8,30.8,t
3,5,10,4,5,3,5,1,7,11,9,-14.6,-19.4,30.8,t
3,5,7,4,6,4,4,2,7,11,9,-13.8,-17.6,32.9,t
3,8,4,5,7,4,3,2,7,10,9,-13.2,-22.3,30.6,t
2,8,5,8,6,4,2,1,7,10,9,-11.6,-21.6,32.9,t
2,8,4,7,6,3,2,1,7,10,9,-9.8,-24.2,32.5,t
2,8,5,9,7,4,2,1,7,9,9,-7.13,-24.6,34.9,t
2,9,7,11,8,4,2,1,7,9,9,-8.34,-27.1,33.7,t
2,8,7,11,8,9,8,2,7,9,9,-7.05,-25.3,34.3,t
2,8,8,10,8,9,9,3,7,9,9,-4.34,-25.6,33,t
3,7,8,9,7,9,9,2,7,9,9,-2.54,-21.6,31,t
4,8,7,8,6,9,9,2,7,9,9,-1.54,-23,29.3,t
4,8,7,6,6,9,9,2,7,9,9,-1.39,-22.4,29.9,t
4,9,9,8,5,9,9,3,7,9,9,-2.54,-20.7,31.3,t
4,8,9,6,5,8,8,3,7,9,9,-4,-22.3,31,t
4,8,9,5,4,8,8,2,7,9,9,-3.83,-21.6,29.9,t
3,8,11,5,2,2,2,1,7,9,9,-3.18,-21.6,30.3,t
3,7,10,5,2,1,1,1,7,9,9,-2.83,-21.1,30,t
3,8,11,5,2,1,1,1,7,9,9,-2.91,-19.9,30.6,t
0,0,0,0,0,0,0,0,0,0,0,0,0,0,SPACE
3,3,3,3,3,3,3,3,7,9,9,-4.18,-22.5,28.9,t
3,3,3,3,3,3,3,3,7,9,9,-3.07,-21.8,29.6,t
3,3,3,3,3,3,3,3,7,9,9,-1.43,-21,29.3,t
3,3,3,3,3,3,3,3,6,9,9,-4.16,-22,29.7,t
3,9,39,24,2,3,2,5,6,9,9,-1.89,-24.9,28,t
3,11,41,29,3,3,2,7,6,9,9,-3.28,-25.7,27.6,t
2,11,37,29,3,3,2,6,6,9,9,-3.67,-27.6,26.9,t
3,9,35,29,3,3,2,6,6,9,9,-3.4,-27.6,26.8,t
4,9,33,26,4,3,4,4,6,9,9,-2.3,-28.9,24.4,t
4,8,36,27,5,3,4,5,6,9,9,-2.38,-29.3,24.3,t
5,8,39,27,6,3,8,6,6,9,9,-6.21,-29.6,22.6,t
7,8,39,25,6,5,9,10,6,9,9,-6.76,-31,19.7,t
8,8,30,26,8,7,12,12,6,10,9,-9.02,-36.7,19.4,t
8,6,28,20,7,8,13,10,6,10,9,-10.9,-33.5,20,t
8,5,28,17,7,10,21,11,6,10,9,-16.1,-32,19.7,t
9,7,36,15,7,13,24,11,6,12,9,-23.2,-27.7,20.4,t
9,7,33,14,6,14,21,13,6,12,9,-24.4,-27.5,19.6,t
11,10,37,17,8,26,30,16,6,13,10,-25.9,-23.6,18.7,t
10,9,45,14,9,31,28,17,6,13,10,-24.7,-19.3,16,t
8,7,46,15,10,35,30,15,7,13,10,-24.6,-15.9,16.4,t
9,9,45,15,8,33,35,12,7,14,11,-25.4,-14.6,16.9,t
10,10,45,17,9,36,41,12,7,14,11,-24.1,-11.9,17.9,t
10,10,49,17,9,44,39,14,7,14,11,-26.8,-11.8,19.1,t
9,9,46,23,12,52,50,20,7,14,11,-25.2,-6.78,20.9,t
9,10,48,25,15,56,51,17,7,14,11,-31.3,-14.5,23.9,t
7,9,39,21,13,44,46,18,7,14,11,-32.5,-13.9,23.4,t
6,10,30,24,12,40,52,16,7,14,11,-31.9,-11.7,23,t
10,11,27,23,10,36,50,16,7,14,11,-32.3,-10,22.1,t
10,12,42,25,11,37,44,17,7,14,11,-31.9,-12.1,21.7,t
9,12,49,23,11,36,38,17,7,14,11,-33,-10.1,22.7,t
9,16,54,24,9,29,40,15,7,14,11,-34,-9,22.2,t
8,17,46,18,7,21,27,9,7,14,11,-37.5,-7.13,23.4,t
8,16,47,16,4,17,27,9,7,14,11,-40.3,-7.64,23.4,t
8,18,58,14,4,17,25,5,7,14,11,-39.2,-10.2,21.4,t
8,20,54,11,4,17,19,5,7,14,11,-39.9,-10.8,19.6,t
4,22,58,15,4,16,19,4,7,15,11,-37.8,-11.1,18,t
4,19,46,10,3,17,18,3,7,15,10,-35.7,-10.4,15.8,t
4,22,39,12,3,15,16,3,7,15,10,-34,-9.18,15,t
4,18,27,10,3,13,10,3,7,15,10,-32.5,-8.91,13.9,t
4,19,28,12,3,10,10,4,6,14,10,-29.7,-13.3,13.6,t
4,21,27,12,2,9,9,4,6,14,9,-28.9,-12.3,12.8,t
5,19,17,17,3,12,8,4,6,14,9,-26,-16.4,12.2,t
7,18,17,17,3,14,8,4,6,13,9,-24.7,-18.2,13.1,t
7,17,16,16,3,14,8,3,5,13,9,-22.1,-20.3,12.4,t
6,18,19,17,4,12,13,5,5,12,8,-17.3,-26.3,11.6,t
7,15,24,14,5,13,14,5,5,11,8,-14.1,-27.2,11.1,t
8,20,31,15,7,13,13,7,5,11,8,-12.2,-31.6,11.2,t
9,18,35,14,7,13,13,7,5,11,8,-11.7,-34.2,11.3,t
9,17,45,17,7,13,16,8,5,10,8,-10.9,-35.5,11.9,t
9,21,54,17,7,10,17,8,5,10,8,-9.8,-36.8,12.2,t
8,23,56,17,7,7,17,10,5,10,8,-10.1,-37.1,13.2,t
10,21,63,17,7,7,18,12,5,10,8,-10.3,-39,13.4,t
11,22,59,17,7,9,20,15,5,10,8,-9.08,-37.1,13.1,t
10,24,57,26,7,8,24,17,5,10,8,-9.8,-36.8,12.8,t
12,19,50,28,5,8,29,14,5,10,8,-9.53,-36.8,12.6,t
13,19,47,26,7,9,35,13,5,10,8,-9.24,-35.5,11.6,t
15,18,36,24,8,8,34,13,5,10,8,-9.41,-34.6,11.6,t
14,13,30,20,12,9,38,14,5,10,8,-9.94,-33,12.2,t
14,11,30,19,14,9,36,12,5,10,8,-9.82,-32.9,12,t
13,10,22,17,16,8,34,11,5,11,8,-11,-34.1,11.6,t
12,9,19,16,16,7,28,6,5,11,8,-14,-32.4,12.1,t
11,7,17,7,15,8,24,4,5,12,8,-17.7,-29.1,13.1,t
9,7,18,5,15,7,17,5,5,12,8,-22.2,-26.3,15,t
7,7,18,8,15,6,11,6,6,13,9,-25,-21.7,15.6,t
4,6,19,7,15,6,9,6,6,13,9,-26.6,-19.4,16.5,t
4,5,17,7,12,7,3,4,6,13,9,-24.7,-19.5,16.7,t
4,4,14,6,9,7,3,3,6,13,9,-26.4,-17.4,17.1,t
4,3,13,6,11,9,4,3,6,13,9,-24.3,-16.5,19,t
4,3,13,6,9,9,3,3,6,13,10,-25,-16,20.3,t
4,3,9,6,9,7,3,3,7,12,10,-22.3,-19.4,23.3,t
4,3,8,6,9,6,3,3,7,12,10,-23.3,-14.6,23.5,t
3,2,6,3,8,6,2,1,6,12,10,-16.8,-20,24.2,t
3,2,4,4,8,7,3,2,6,11,10,-17.8,-23.7,26.9,t
3,2,3,4,7,5,3,2,6,10,10,-10.5,-26.8,29.1,t
4,2,3,4,8,5,3,2,6,10,10,-11.9,-24.6,31.1,t
4,6,2,5,5,3,2,1,6,9,10,-9.65,-33.3,31.4,t
4,8,2,7,7,4,2,1,6,9,9,-8.46,-27.8,30.1,t
4,7,2,7,8,4,2,1,6,9,9,-7.17,-30.2,28.3,t
4,8,2,7,7,4,2,1,6,9,9,-5.39,-26.9,27.5,t
4,9,2,7,7,4,2,1,6,9,9,-3.83,-28.1,25.4,t
4,9,2,7,6,3,2,1,6,9,9,-2.95,-29.1,25,t
4,10,2,8,5,3,1,1,6,9,9,-2.21,-28.9,24.5,t
2,10,2,8,5,2,1,1,6,9,9,-1.6,-26.5,27.3,t
2,6,1,7,4,2,1,1,6,9,9,-3.26,-24.6,28,t
2,6,1,5,3,1,1,1,6,9,9,-3.87,-24.5,28.4,t
2,5,1,5,3,1,1,1,6,9,9,-3.89,-24.5,28.1,t
2,5,1,6,3,1,1,1,6,9,9,-3.5,-24.2,27.3,t
2,5,1,6,3,1,1,1,6,9,9,-3.16,-24.7,27,t
2,5,1,6,4,1,1,1,6,9,9,-2.93,-25,27.2,t
2,7,2,5,4,1,1,1,6,9,9,-3.36,-24.8,27.1,t
2,8,2,4,4,1,1,1,6,9,9,-3.55,-25,27.2,t
2,9,2,6,4,1,1,1,6,9,9,-3.57,-24.3,27.8,t
1,9,2,7,3,1,1,1,6,9,9,-3.38,-24.2,27.5,t
1,10,2,5,3,1,1,1,6,9,9,-3.57,-24.6,27.6,t
1,10,2,5,2,1,1,1,6,9,9,-3.59,-24.5,27.2,t
1,8,2,5,3,1,1,1,6,9,9,-3.57,-24.7,27.4,t
2,8,2,5,2,1,1,1,6,9,9,-3.48,-25,27.1,t
2,6,3,5,3,1,1,1,6,9,9,-3.83,-20.6,25.9,t
2,6,6,5,3,1,1,1,6,9,9,-3.03,-25.5,28,t
3,8,6,3,3,1,1,1,6,9,9,-4.16,-24,27.6,t
0,0,0,0,0,0,0,0,0,0,0,0,0,0,SPACE
3,3,3,3,3,3,3,3,7,9,9,-1.41,-20.3,31.3,t
3,3,3,3,3,3,3,3,7,9,9,-1.41,-21,29.8,t
3,3,3,3,3,3,3,3,7,9,9,0.0391,-19,31.1,t
3,3,3,3,3,3,3,3,7,9,9,-1.43,-20.4,29.8,t
6,13,57,17,7,8,13,5,7,9,9,-0.879,-23.1,29,t
8,12,65,27,6,9,12,12,6,9,9,-2.25,-26.8,27.9,t
7,14,58,31,6,8,14,11,6,9,9,-1.88,-25.7,26.8,t
7,14,54,31,6,9,17,11,6,9,9,-4.02,-31.2,26.1,t
7,13,53,34,8,9,16,15,6,9,9,-6.74,-30.1,25.8,t
7,10,53,35,6,7,17,16,6,9,9,-7.01,-32,25.7,t
10,9,49,37,7,8,21,20,6,10,9,-8.05,-30.2,25.5,t
10,11,50,42,8,9,21,21,6,10,9,-9.36,-31.2,23.4,t
9,10,49,47,8,9,21,23,6,11,9,-13.5,-31.5,20.8,t
11,10,44,39,8,8,31,22,6,11,9,-17.8,-26.8,19.3,t
13,7,48,40,8,10,34,27,6,12,10,-20.6,-25.9,17.9,t
13,8,51,37,8,11,33,26,6,13,10,-26.2,-18.4,20.5,t
13,10,53,32,7,12,36,27,7,13,11,-26.3,-15.5,21.9,t
13,11,50,31,8,12,38,28,7,13,11,-24.8,-14.8,21.1,t
14,12,48,25,7,12,43,24,7,13,11,-24.7,-15.7,20.2,t
15,10,57,22,8,12,52,25,7,13,11,-25.9,-14.9,19.4,t
15,12,47,16,10,11,54,29,7,13,11,-27.9,-15.4,19.6,t
13,12,46,17,9,12,54,31,7,13,11,-27.1,-12,20,t
11,12,42,11,10,12,49,27,7,13,11,-28.3,-14.7,20.7,t
11,10,38,15,11,12,49,26,7,13,11,-28.9,-17.8,21,t
11,9,38,16,11,14,53,23,7,13,11,-29.2,-14.8,20.9,t
12,9,51,18,9,14,57,21,7,13,11,-29.9,-15.2,21.5,t
11,8,45,22,9,12,51,23,7,13,11,-29.6,-15.2,22,t
12,9,47,22,7,13,49,23,7,13,11,-31.6,-14.3,24,t
15,8,48,22,5,13,49,20,7,13,11,-33.1,-13.1,25.3,t
15,9,43,21,7,14,40,15,7,13,11,-34.3,-12,26.9,t
16,12,50,20,6,14,38,16,7,14,11,-35.7,-12.5,25.1,t
15,18,58,20,5,13,35,19,7,14,11,-36.1,-13.9,22.8,t
16,22,58,25,5,9,28,18,7,14,11,-34.5,-14.7,20.4,t
14,21,54,22,5,10,21,20,7,14,10,-33.6,-15.5,18.6,t
12,22,53,23,6,12,22,24,6,14,10,-32.4,-15.2,16.8,t
12,21,49,21,7,13,17,26,6,14,10,-30.4,-18.1,14.8,t
13,27,54,24,7,14,11,23,6,14,10,-30,-17.4,14.1,t
11,29,62,30,5,15,11,23,6,13,9,-27,-21.9,15.5,t
10,30,58,31,4,11,15,25,6,13,9,-25.7,-24.2,15,t
11,28,52,29,4,12,14,22,6,13,9,-24.8,-24.9,14,t
14,26,62,25,5,15,17,29,5,12,9,-21.8,-27.2,14.5,t
16,29,57,28,4,15,19,29,5,12,9,-20.9,-25.6,14.9,t
15,31,70,23,3,13,16,22,5,12,9,-16.7,-26.7,14.9,t
17,29,63,23,4,11,14,19,5,11,8,-12.7,-27.2,14.2,t
12,24,58,21,3,12,20,18,5,11,8,-11.6,-29.8,15,t
12,26,50,14,4,10,20,18,5,11,8,-10.8,-31.7,14.1,t
13,26,58,13,4,11,22,15,5,10,8,-9.94,-31,14.1,t
13,24,61,16,5,10,23,14,5,10,8,-10.1,-33.2,14.1,t
11,21,48,13,4,7,21,9,5,10,8,-10.5,-33.8,14,t
11,20,43,11,4,8,21,10,5,10,8,-11.1,-35.3,14.4,t
13,17,36,14,5,9,21,16,5,10,8,-11,-35.2,14,t
10,17,40,13,3,10,25,15,5,10,8,-11.2,-35.8,13.6,t
13,22,48,12,4,8,21,18,5,10,8,-11.5,-34.6,13.1,t
16,19,50,14,4,7,26,18,5,10,8,-11.8,-36,13.1,t
16,17,43,14,5,9,22,19,5,10,8,-11.6,-34.8,13.1,t
16,16,40,11,4,8,21,19,5,10,8,-12.2,-34.3,12.5,t
16,16,39,14,7,10,20,19,5,11,8,-13.2,-33.8,13.7,t
14,14,38,14,8,8,17,16,5,11,8,-13.7,-32.8,12.6,t
13,14,32,13,7,8,16,10,5,12,8,-17,-30.6,13.8,t
14,15,28,14,9,8,13,9,5,12,8,-17.4,-29,13,t
11,10,20,15,9,8,11,7,5,12,8,-20.4,-27.4,13.3,t
9,6,19,14,8,7,6,5,6,13,9,-22.2,-22.9,14.6,t
8,4,15,13,7,5,4,4,6,13,9,-25.3,-19.7,15.1,t
7,4,18,12,7,6,4,4,6,13,9,-23.6,-15.1,15.3,t
5,3,18,10,6,4,3,2,6,13,9,-23.4,-14.9,15.1,t
4,2,18,8,6,4,3,1,7,13,9,-22.4,-11.3,16.6,t
3,1,19,6,8,4,3,1,7,13,10,-21.5,-10.5,18.5,t
1,1,16,6,7,3,3,0,7,13,10,-21.7,-12.5,18.9,t
1,1,14,5,6,3,2,0,7,13,10,-24.4,-13.8,23.8,t
1,3,12,5,8,5,3,0,7,12,10,-20.1,-12.8,23.9,t
1,3,8,4,10,4,4,1,7,12,10,-23.7,-15.5,29.5,t
2,4,3,5,12,4,4,1,7,11,10,-17.8,-24.3,35,t
1,8,3,5,12,4,4,1,6,10,10,-14,-26.8,35.6,t
1,9,8,6,11,3,4,1,6,10,10,-10.7,-27.4,36.4,t
1,9,15,6,10,5,5,1,6,10,10,-11.5,-26,34.6,t
1,10,15,6,11,4,5,1,6,9,9,-8.16,-26.2,32.2,t
2,11,21,5,11,4,4,1,6,9,9,-7.7,-24.9,29.9,t
2,12,22,5,9,2,3,1,6,9,9,-6.99,-27.6,28.4,t
2,15,22,6,8,3,3,1,6,9,9,-4.28,-30.6,28.2,t
1,13,22,6,6,3,2,1,6,9,9,-6.56,-28.1,23.9,t
2,10,23,5,5,2,2,1,6,9,9,-3.4,-25.4,27.8,t
2,10,17,4,4,2,1,1,6,9,9,-4.24,-26.4,28.7,t
3,11,9,4,3,1,1,1,6,9,9,-5.04,-25.6,28.8,t
3,10,11,4,2,1,1,1,6,9,9,-5.37,-25.4,27.3,t
2,10,7,4,3,1,1,1,6,9,9,-4.59,-26.9,26.1,t
2,7,7,5,3,1,1,1,6,9,9,-4.39,-26.6,25.4,t
2,5,6,5,3,1,1,1,6,9,9,-4.28,-26.4,25.3,t
2,6,9,6,3,1,1,1,6,9,9,-4.12,-26.3,25.3,t
1,8,9,6,3,1,1,1,6,9,9,-4.51,-26.3,25.7,t
1,10,10,7,3,1,1,1,6,9,9,-5,-25.7,26.2,t
1,10,14,8,3,1,1,1,6,9,9,-4.59,-25.4,26.3,t
1,10,14,8,3,1,1,1,6,9,9,-4.51,-26.3,26.6,t
2,11,14,9,3,1,1,1,6,9,9,-5.25,-26.4,26.8,t
3,19,17,8,2,1,2,1,6,9,9,-6.23,-26.9,26.3,t
4,19,22,9,3,2,4,3,6,9,9,-5.8,-24.6,27.9,t
5,23,22,8,2,3,4,3,6,9,9,-4.22,-24.3,28.4,t
5,22,25,8,2,4,4,3,6,9,9,-3.28,-24.6,27.5,t
5,24,26,7,3,5,5,3,6,9,9,-2.05,-23.9,26.9,t
6,25,22,7,2,5,4,3,6,9,9,-3.28,-25,26,t
6,25,21,6,2,5,5,3,6,9,9,-4.02,-24.4,26.8,t
0,0,0,0,0,0,0,0,0,0,0,0,0,0,SPACE
3,3,3,3,3,3,3,3,6,9,9,-3.54,-24.7,27.5,t
3,3,3,3,3,3,3,3,6,9,9,-3.57,-24,27.2,t
3,3,3,3,3,3,3,3,6,9,9,-3.95,-23.1,28.6,t
3,3,3,3,3,3,3,3,6,9,9,-4.14,-26,27,t
16,15,44,29,6,2,4,10,6,9,9,-2.13,-25.6,26.5,t
14,13,40,27,6,2,3,10,6,9,9,-2.81,-28.9,25.4,t
14,14,35,24,5,2,4,9,6,9,9,-3.07,-30.7,23.8,t
14,16,35,28,4,2,4,12,6,9,9,-5.51,-29.1,23.9,t
9,14,47,33,5,2,5,12,6,9,9,-6.02,-30,23.8,t
11,13,48,44,3,3,5,13,6,9,9,-8.28,-29.3,22.6,t
11,12,56,44,3,4,8,15,6,10,9,-6.99,-33.7,21.8,t
14,10,50,46,2,3,15,21,6,10,9,-10,-30.8,20.7,t
14,10,40,41,2,5,22,19,6,10,9,-12.1,-33.6,19.8,t
14,13,42,43,3,5,26,19,6,11,9,-13.8,-32,19,t
14,15,54,49,3,5,28,21,6,11,9,-16.5,-30.4,19.3,t
13,12,51,45,4,6,32,20,6,11,9,-17.8,-30.4,18.5,t
12,13,37,41,4,6,36,25,6,12,10,-19,-28.6,17.8,t
13,14,43,36,5,8,42,24,6,12,10,-21.6,-25.3,17.3,t
13,14,43,37,5,10,46,25,6,12,10,-23.7,-25.2,16.7,t
11,15,52,33,8,12,41,21,6,13,10,-24.2,-22.8,16.9,t
11,15,55,33,8,11,43,24,6,13,11,-26.4,-20.4,17.2,t
12,13,60,31,8,15,43,27,6,13,11,-26.3,-18.2,18.6,t
11,10,50,31,9,19,43,24,6,13,11,-27.4,-17.9,19.2,t
10,9,54,30,11,24,45,23,6,13,11,-27.1,-16.4,19.6,t
10,10,55,31,12,24,39,17,6,13,11,-27.9,-17.2,19.4,t
9,11,54,30,12,25,35,18,7,13,11,-27.4,-16.3,18.9,t
10,11,55,27,12,23,32,16,7,14,11,-28.4,-16.9,18.4,t
8,9,47,26,11,27,41,15,7,14,12,-31.2,-14.5,19,t
7,10,47,24,11,35,37,12,7,13,12,-29.4,-16.8,20.5,t
8,8,42,24,11,32,33,10,7,13,12,-29.4,-17.5,20.3,t
8,9,47,21,11,27,32,13,7,13,12,-29.4,-15.6,20.1,t
9,12,45,22,9,26,30,13,7,13,12,-30.3,-16.1,19.8,t
8,13,55,22,8,27,33,15,7,13,12,-29,-15.9,20.2,t
6,13,50,21,6,28,31,14,7,13,12,-29.7,-15.3,22.1,t
5,15,49,20,7,26,29,14,7,13,11,-33,-14.4,23.9,t
7,15,47,23,5,20,20,13,7,14,11,-32.2,-13.7,24.9,t
6,15,48,20,6,18,18,12,7,14,11,-34.8,-14.5,24.6,t
5,16,44,19,5,18,19,12,7,14,11,-35.3,-14.5,23.7,t
6,17,41,16,6,19,20,11,7,14,11,-36.9,-14.4,21.4,t
5,18,40,14,4,15,17,10,7,14,11,-37.3,-15.3,20.2,t
